Sampling Rate : 128HZ,Duration : 10 Minutes
Time,PPG
0,-62997.44531
0.0078125,-62930.30078
0.015625,-62874.19922
0.0234375,-62827.80859
0.03125,-62789.98828
0.0390625,-62760.03906
0.046875,-62734.78906
0.0546875,-62708.00781
0.0625,-62674.30078
0.0703125,-62631.08984
0.078125,-62584.36328
0.0859375,-62543.78516
0.09375,-62519.64063
0.1015625,-62516.73438
0.109375,-62531.5625
0.1171875,-62555.70313
0.125,-62579.46484
0.1328125,-62597.52734
0.140625,-62610
0.1484375,-62620.29297
0.15625,-62632.63281
0.1640625,-62647.21484
0.171875,-62663.41797
0.1796875,-62678.83203
0.1875,-62693.82031
0.1953125,-62712.43359
0.203125,-62740.35938
0.2109375,-62784.11719
0.21875,-62845.47656
0.2265625,-62920.82422
0.234375,-63001.10938
0.2421875,-63074.89844
0.25,-63133.93359
0.2578125,-63173.9375
0.265625,-63198.06641
0.2734375,-63211.01172
0.28125,-63217.36328
0.2890625,-63219.53906
0.296875,-63217.75391
0.3046875,-63214.625
0.3125,-63214.08984
0.3203125,-63220.98047
0.328125,-63237.10156
0.3359375,-63258.71484
0.34375,-63279
0.3515625,-63289.94141
0.359375,-63289.45703
0.3671875,-63279.39844
0.375,-63265.02344
0.3828125,-63251.80078
0.390625,-63243.04297
0.3984375,-63243.38281
0.40625,-63257.27344
0.4140625,-63288.96875
0.421875,-63338.34375
0.4296875,-63398.02734
0.4375,-63456.12891
0.4453125,-63500.03125
0.453125,-63525.85547
0.4609375,-63537.86328
0.46875,-63546.1875
0.4765625,-63559.67578
0.484375,-63579.54688
0.4921875,-63602.60547
0.5,-63630.06641
0.5078125,-63648.62109
0.515625,-63670.35156
0.5234375,-63699.75391
0.53125,-63736.57031
0.5390625,-63775.96875
0.546875,-63812.91016
0.5546875,-63845.26172
0.5625,-63875.82813
0.5703125,-63908.6875
0.578125,-63945.36719
0.5859375,-63984.03125
0.59375,-64018.89453
0.6015625,-64047.15625
0.609375,-64068.10938
0.6171875,-64084.69922
0.625,-64100.38281
0.6328125,-64115.67578
0.640625,-64129.89453
0.6484375,-64140.60938
0.65625,-64147.16797
0.6640625,-64151.22656
0.671875,-64156.125
0.6796875,-64166.57813
0.6875,-64185.23438
0.6953125,-64214.39063
0.703125,-64252.62891
0.7109375,-64296.22656
0.71875,-64340.21484
0.7265625,-64378.75781
0.734375,-64410.33984
0.7421875,-64436.02734
0.75,-64461.10156
0.7578125,-64491.41406
0.765625,-64530.6875
0.7734375,-64579.18359
0.78125,-64633.04688
0.7890625,-64687.50781
0.796875,-64737.80859
0.8046875,-64780.79297
0.8125,-64815.32031
0.8203125,-64838.98438
0.828125,-64850.96875
0.8359375,-64849.20313
0.84375,-64834.10156
0.8515625,-64808.77344
0.859375,-64778.36719
0.8671875,-64748.86328
0.875,-64723.10156
0.8828125,-64700.19531
0.890625,-64675.8125
0.8984375,-64645.05469
0.90625,-64606.46875
0.9140625,-64560.72266
0.921875,-64512.16797
0.9296875,-64462.85938
0.9375,-64412.33594
0.9453125,-64357.90625
0.953125,-64295.75391
0.9609375,-64226.12891
0.96875,-64151.375
0.9765625,-64076.51563
0.984375,-64005.64844
0.9921875,-63940.44531
1,-63875.05469
1.0078125,-63819.72266
1.015625,-63768.83203
1.0234375,-63723.96484
1.03125,-63687.91406
1.0390625,-63662.60547
1.046875,-63645.91797
1.0546875,-63634.15234
1.0625,-63620.23047
1.0703125,-63597.90234
1.078125,-63562.5625
1.0859375,-63512.32422
1.09375,-63448.92578
1.1015625,-63376.33984
1.109375,-63301.31641
1.1171875,-63231.46094
1.125,-63173.3125
1.1328125,-63130.82422
1.140625,-63101.50391
1.1484375,-63079.77344
1.15625,-63057.14844
1.1640625,-63027.67578
1.171875,-62990.75391
1.1796875,-62948.75391
1.1875,-62906.66406
1.1953125,-62864.83984
1.203125,-62819.64844
1.2109375,-62764.78516
1.21875,-62695.62891
1.2265625,-62614.11328
1.234375,-62527.52344
1.2421875,-62445.58984
1.25,-62374.67969
1.2578125,-62314.86328
1.265625,-62261.61719
1.2734375,-62208.96875
1.28125,-62155.95703
1.2890625,-62105.33984
1.296875,-62061.26172
1.3046875,-62024.94141
1.3125,-61989.89844
1.3203125,-61946.76563
1.328125,-61884.98438
1.3359375,-61800.16016
1.34375,-61695.33594
1.3515625,-61578.26953
1.359375,-61459.52344
1.3671875,-61346.07422
1.375,-61241.52734
1.3828125,-61145.66016
1.390625,-61056.22266
1.3984375,-60971.00781
1.40625,-60887.90234
1.4140625,-60806.40625
1.421875,-60726.63672
1.4296875,-60649.15234
1.4375,-60575.33203
1.4453125,-60504.9375
1.453125,-60439.08984
1.4609375,-60377.51563
1.46875,-60320.13672
1.4765625,-60266.59766
1.484375,-60214.53125
1.4921875,-60162.56641
1.5,-60077.14844
1.5078125,-60020.76953
1.515625,-59965.91797
1.5234375,-59917.02344
1.53125,-59878.54688
1.5390625,-59853.88281
1.546875,-59844.49219
1.5546875,-59847.05859
1.5625,-59854.77734
1.5703125,-59857.28516
1.578125,-59846.01953
1.5859375,-59820.37891
1.59375,-59787.39063
1.6015625,-59759.57031
1.609375,-59742.21094
1.6171875,-59726.92188
1.625,-59693.92578
1.6328125,-59623.5625
1.640625,-59516.37109
1.6484375,-59397.70313
1.65625,-59310.69922
1.6640625,-59293.71094
1.671875,-59358.19141
1.6796875,-59485.33203
1.6875,-59636.76172
1.6953125,-59778.5625
1.703125,-59896.44141
1.7109375,-59995.14063
1.71875,-60085.65625
1.7265625,-60169.61719
1.734375,-60235.49219
1.7421875,-60266.10938
1.75,-60251.60938
1.7578125,-60197.875
1.765625,-60123.70703
1.7734375,-60052.57813
1.78125,-60001.59766
1.7890625,-59976.6875
1.796875,-59974.53906
1.8046875,-59985
1.8125,-59998.68359
1.8203125,-60007.49219
1.828125,-60007.22266
1.8359375,-59997.68359
1.84375,-59979.93359
1.8515625,-59957.21875
1.859375,-59929.625
1.8671875,-59894.21484
1.875,-59844.40234
1.8828125,-59770.69531
1.890625,-59666.65625
1.8984375,-59529.99219
1.90625,-59366.59375
1.9140625,-59188.625
1.921875,-59010.30469
1.9296875,-58843.30078
1.9375,-58691.98438
1.9453125,-58554.26953
1.953125,-58424.87109
1.9609375,-58300.09375
1.96875,-58180.87891
1.9765625,-58071.08984
1.984375,-57975.46484
1.9921875,-57896.30469
2,-57831.01953
2.0078125,-57786.20313
2.015625,-57758.03125
2.0234375,-57748.35156
2.03125,-57755.49219
2.0390625,-57773.80469
2.046875,-57794.58984
2.0546875,-57807.44922
2.0625,-57806.94141
2.0703125,-57791.70313
2.078125,-57765.89063
2.0859375,-57737.17578
2.09375,-57713.32813
2.1015625,-57703.14844
2.109375,-57711.28125
2.1171875,-57737.70313
2.125,-57775.72266
2.1328125,-57812.51172
2.140625,-57836.84766
2.1484375,-57842.8125
2.15625,-57835.07813
2.1640625,-57825.25781
2.171875,-57823.10938
2.1796875,-57830.94531
2.1875,-57839.93359
2.1953125,-57838.34375
2.203125,-57821.09766
2.2109375,-57796.12109
2.21875,-57782.54297
2.2265625,-57799.23047
2.234375,-57853.87109
2.2421875,-57937.63672
2.25,-58029.50391
2.2578125,-58107.59375
2.265625,-58158.15625
2.2734375,-58179.37109
2.28125,-58176.82422
2.2890625,-58156.40625
2.296875,-58119.83984
2.3046875,-58064.01953
2.3125,-57985.66797
2.3203125,-57884.78906
2.328125,-57766.28516
2.3359375,-57639.50391
2.34375,-57514.16016
2.3515625,-57399.38281
2.359375,-57301.17188
2.3671875,-57222.37891
2.375,-57163.88672
2.3828125,-57123.74609
2.390625,-57101.20703
2.3984375,-57095.80078
2.40625,-57108.39844
2.4140625,-57140.52734
2.421875,-57190.30859
2.4296875,-57254.19141
2.4375,-57325.30078
2.4453125,-57397.37109
2.453125,-57467.87109
2.4609375,-57536.64844
2.46875,-57606.91797
2.4765625,-57679.11719
2.484375,-57750.59766
2.4921875,-57816.44922
2.5,-57894.67188
2.5078125,-57933.51172
2.515625,-57967.65234
2.5234375,-58003.73047
2.53125,-58043.27344
2.5390625,-58082.50391
2.546875,-58113.31641
2.5546875,-58126.1875
2.5625,-58117.58984
2.5703125,-58089.56641
2.578125,-58050.84375
2.5859375,-58012.45703
2.59375,-57982.18359
2.6015625,-57964.22266
2.609375,-57956.52344
2.6171875,-57955.3125
2.625,-57958.14453
2.6328125,-57965.25391
2.640625,-57982.625
2.6484375,-58017.26563
2.65625,-58075.80078
2.6640625,-58160.44141
2.671875,-58265.76563
2.6796875,-58381.62109
2.6875,-58493.34766
2.6953125,-58588.35938
2.703125,-58659.53125
2.7109375,-58705.72266
2.71875,-58732.60547
2.7265625,-58746.39844
2.734375,-58752.27344
2.7421875,-58752.44531
2.75,-58745.96484
2.7578125,-58733.17188
2.765625,-58714.35547
2.7734375,-58691.51172
2.78125,-58666.98047
2.7890625,-58642.07031
2.796875,-58620.53516
2.8046875,-58607.36328
2.8125,-58610.26953
2.8203125,-58635.15234
2.828125,-58678.68359
2.8359375,-58726.40625
2.84375,-58753.05859
2.8515625,-58736.24219
2.859375,-58671.125
2.8671875,-58577.71484
2.875,-58495.55469
2.8828125,-58457.60938
2.890625,-58465.67578
2.8984375,-58477.73438
2.90625,-58421.79688
2.9140625,-58234.18359
2.921875,-57894.36719
2.9296875,-57440.94922
2.9375,-56952.23438
2.9453125,-56503.48828
2.953125,-56131.60156
2.9609375,-55821.48438
2.96875,-55529.02734
2.9765625,-55216.60547
2.984375,-54878.81641
2.9921875,-54545.40625
3,-54253.90625
3.0078125,-54041.59375
3.015625,-53905.12109
3.0234375,-53829.55859
3.03125,-53799.84375
3.0390625,-53808.83984
3.046875,-53856.99609
3.0546875,-53941.03906
3.0625,-54044.41406
3.0703125,-54141.4375
3.078125,-54205.82813
3.0859375,-54225.125
3.09375,-54205.02344
3.1015625,-54162.89844
3.109375,-54119.20703
3.1171875,-54085.32813
3.125,-54062.83203
3.1328125,-54046.90234
3.140625,-54031.02344
3.1484375,-54013.77344
3.15625,-53996.27344
3.1640625,-53981.59375
3.171875,-53971.61328
3.1796875,-53963.48438
3.1875,-53951.98047
3.1953125,-53928.28516
3.203125,-53884.40234
3.2109375,-53816.75
3.21875,-53727.03906
3.2265625,-53625.125
3.234375,-53523.86328
3.2421875,-53435.96094
3.25,-53370.12109
3.2578125,-53326.50781
3.265625,-53299.52344
3.2734375,-53278.05078
3.28125,-53251.52734
3.2890625,-53216.13672
3.296875,-53176.75391
3.3046875,-53148.19141
3.3125,-53145.59766
3.3203125,-53173.58984
3.328125,-53217.94531
3.3359375,-53243.96484
3.34375,-53211.07422
3.3515625,-53090.53516
3.359375,-52882.46875
3.3671875,-52619.9375
3.375,-52355.28125
3.3828125,-52140.02734
3.390625,-52004.26172
3.3984375,-51948.88672
3.40625,-51951.29297
3.4140625,-51976.80078
3.421875,-51992.5
3.4296875,-51975.52344
3.4375,-51919.06641
3.4453125,-51837.59766
3.453125,-51768.96484
3.4609375,-51771.21875
3.46875,-51907.00781
3.4765625,-52218.72266
3.484375,-52704.63672
3.4921875,-53308.22656
3.5,-54171.64063
3.5078125,-54645.62109
3.515625,-54944.25391
3.5234375,-55070.17578
3.53125,-55071.83594
3.5390625,-55018.29297
3.546875,-54967.79297
3.5546875,-54951.73438
3.5625,-54973.84375
3.5703125,-55020.16016
3.578125,-55075.19531
3.5859375,-55127.14063
3.59375,-55169.91016
3.6015625,-55199.49219
3.609375,-55209.27344
3.6171875,-55192.42969
3.625,-55142.02344
3.6328125,-55055.57813
3.640625,-54938.23047
3.6484375,-54802.26953
3.65625,-54668.41406
3.6640625,-54559.76172
3.671875,-54495.75391
3.6796875,-54485.19141
3.6875,-54520.29688
3.6953125,-54579.76172
3.703125,-54635.92969
3.7109375,-54666.56641
3.71875,-54663.73047
3.7265625,-54634.78516
3.734375,-54597.09375
3.7421875,-54567.77734
3.75,-54555.69531
3.7578125,-54559.47656
3.765625,-54570.28125
3.7734375,-54578.84766
3.78125,-54580.61719
3.7890625,-54577.09375
3.796875,-54574.67578
3.8046875,-54578.96484
3.8125,-54592.20703
3.8203125,-54611.46484
3.828125,-54629.64063
3.8359375,-54641.33203
3.84375,-54643.74609
3.8515625,-54639.34766
3.859375,-54633.30078
3.8671875,-54628.78906
3.875,-54627.45313
3.8828125,-54627.78906
3.890625,-54629.94531
3.8984375,-54637.98828
3.90625,-54656.76563
3.9140625,-54689.26953
3.921875,-54729.19141
3.9296875,-54762.82813
3.9375,-54777.42578
3.9453125,-54770.46484
3.953125,-54757.95313
3.9609375,-54766.55469
3.96875,-54818.11719
3.9765625,-54912.75391
3.984375,-55021.0625
3.9921875,-55095.98438
4,-55095.20313
4.0078125,-55005.3125
4.015625,-54848.61328
4.0234375,-54671.87109
4.03125,-54524.71094
4.0390625,-54437.58984
4.046875,-54412.30859
4.0546875,-54428.85156
4.0625,-54459.85547
4.0703125,-54486.19531
4.078125,-54502.49609
4.0859375,-54512.75781
4.09375,-54524.41406
4.1015625,-54539.81641
4.109375,-54556.98047
4.1171875,-54572.67188
4.125,-54585.18359
4.1328125,-54598.60156
4.140625,-54618.87109
4.1484375,-54652.03125
4.15625,-54702.08594
4.1640625,-54767.94922
4.171875,-54845.77344
4.1796875,-54927.13672
4.1875,-55000.58203
4.1953125,-55053.90625
4.203125,-55076.26563
4.2109375,-55062.87891
4.21875,-55016.79297
4.2265625,-54948.17188
4.234375,-54870.78516
4.2421875,-54796.25781
4.25,-54731.13672
4.2578125,-54676.80859
4.265625,-54631.58984
4.2734375,-54596.09766
4.28125,-54572.53125
4.2890625,-54565.11328
4.296875,-54576.96094
4.3046875,-54607.06641
4.3125,-54653.23828
4.3203125,-54711.51172
4.328125,-54779.36328
4.3359375,-54855.75
4.34375,-54937.34375
4.3515625,-55018.69531
4.359375,-55089.01563
4.3671875,-55135.48438
4.375,-55148.80469
4.3828125,-55127.99219
4.390625,-55086.69531
4.3984375,-55053.30469
4.40625,-55067.29297
4.4140625,-55170.05859
4.421875,-55391.65234
4.4296875,-55739.375
4.4375,-56191.45313
4.4453125,-56699.875
4.453125,-57204.41797
4.4609375,-57649.33594
4.46875,-58000.98047
4.4765625,-58255.30859
4.484375,-58433.53906
4.4921875,-58572.11719
4.5,-76966.11719
4.5078125,-78199.21875
4.515625,-79358.5
4.5234375,-80484.39844
4.53125,-81639.49219
4.5390625,-82866.66406
4.546875,-84146.51563
4.5546875,-85379.03906
4.5625,-86414.10156
4.5703125,-87115.59375
4.578125,-87425.70313
4.5859375,-87397.67188
4.59375,-87168.97656
4.6015625,-86897.76563
4.609375,-86696.60938
4.6171875,-86596.20313
4.625,-86558.875
4.6328125,-86520.75
4.640625,-86437.29688
4.6484375,-86304.75
4.65625,-86151.26563
4.6640625,-86012.44531
4.671875,-85907.60156
4.6796875,-85831.25
4.6875,-85764.25
4.6953125,-85686.20313
4.703125,-85588.80469
4.7109375,-85477.875
4.71875,-85365.42188
4.7265625,-85265.49219
4.734375,-85184.92188
4.7421875,-85123.80469
4.75,-85078.21094
4.7578125,-85041.11719
4.765625,-85005.9375
4.7734375,-84966.02344
4.78125,-84915.625
4.7890625,-84851.82031
4.796875,-84775.14844
4.8046875,-84692.40625
4.8125,-84614.58594
4.8203125,-84551.91406
4.828125,-84512.4375
4.8359375,-84494.89844
4.84375,-84491.67969
4.8515625,-84492.41406
4.859375,-84487.11719
4.8671875,-84473.63281
4.875,-84453.60156
4.8828125,-84430.78906
4.890625,-84407.6875
4.8984375,-84381.90625
4.90625,-84349.61719
4.9140625,-84308
4.921875,-84258.54688
4.9296875,-84207.71875
4.9375,-84162.75
4.9453125,-84128.94531
4.953125,-84106.40625
4.9609375,-84089.10938
4.96875,-84071.49219
4.9765625,-84048.39844
4.984375,-84019.85156
4.9921875,-83990.21875
5,-83963.67188
5.0078125,-83944.32031
5.015625,-83931.97656
5.0234375,-83923.13281
5.03125,-83913.58594
5.0390625,-83898.58594
5.046875,-83875.98438
5.0546875,-83845.36719
5.0625,-83807.46875
5.0703125,-83763.96875
5.078125,-83715.14063
5.0859375,-83661.38281
5.09375,-83602.9375
5.1015625,-83539.32813
5.109375,-83473.71875
5.1171875,-83409.28906
5.125,-83351.32031
5.1328125,-83305.53125
5.140625,-83274.1875
5.1484375,-83258.54688
5.15625,-83254.88281
5.1640625,-83257.28906
5.171875,-83260.5
5.1796875,-83260.39844
5.1875,-83257.01563
5.1953125,-83252.97656
5.203125,-83251.78906
5.2109375,-83256.24219
5.21875,-83265.89063
5.2265625,-83279
5.234375,-83293.57813
5.2421875,-83307.92188
5.25,-83324.46875
5.2578125,-83344.6875
5.265625,-83369.53125
5.2734375,-83397.48438
5.28125,-83422.82813
5.2890625,-83441.58594
5.296875,-83450.30469
5.3046875,-83448.98438
5.3125,-83440.91406
5.3203125,-83428.8125
5.328125,-83414.71875
5.3359375,-83398.25781
5.34375,-83378.125
5.3515625,-83354.08594
5.359375,-83326.44531
5.3671875,-83297.23438
5.375,-83268.57813
5.3828125,-83240.9375
5.390625,-83216.71875
5.3984375,-83197.02344
5.40625,-83183.75
5.4140625,-83177.91406
5.421875,-83176.32031
5.4296875,-83175.23438
5.4375,-83168.64844
5.4453125,-83152.91406
5.453125,-83129.10156
5.4609375,-83100.63281
5.46875,-83071.96875
5.4765625,-83043.97656
5.484375,-83012.72656
5.4921875,-82971.84375
5.5,-82914.82813
5.5078125,-82840.00781
5.515625,-82750.60156
5.5234375,-82651.53125
5.53125,-82549.19531
5.5390625,-82445.35156
5.546875,-82339.375
5.5546875,-82229.82031
5.5625,-82115.01563
5.5703125,-81997.9375
5.578125,-81882.34375
5.5859375,-81772.26563
5.59375,-81670.60156
5.6015625,-81576.59375
5.609375,-81488.02344
5.6171875,-81401.67188
5.625,-81315.23438
5.6328125,-81228.76563
5.640625,-81143.09375
5.6484375,-81060.17969
5.65625,-80981.54688
5.6640625,-80906.1875
5.671875,-80834.07031
5.6796875,-80762.98438
5.6875,-80692.23438
5.6953125,-80622.66406
5.703125,-80554.71094
5.7109375,-80491.45313
5.71875,-80433.74219
5.7265625,-80380.84375
5.734375,-80330.48438
5.7421875,-80278.40625
5.75,-80222.03125
5.7578125,-80161.66406
5.765625,-80101.34375
5.7734375,-80048.16406
5.78125,-80007.61719
5.7890625,-79981.80469
5.796875,-79967.57813
5.8046875,-79957.17969
5.8125,-79945.28125
5.8203125,-79928.74219
5.828125,-79909.65625
5.8359375,-79892.33594
5.84375,-79877.29688
5.8515625,-79862.75
5.859375,-79842.17969
5.8671875,-79810.125
5.875,-79767.0625
5.8828125,-79718.71875
5.890625,-79675.34375
5.8984375,-79645.39844
5.90625,-79631.53125
5.9140625,-79630.57031
5.921875,-79635.14063
5.9296875,-79639.50781
5.9375,-79641.77344
5.9453125,-79642.32031
5.953125,-79644.19531
5.9609375,-79646.54688
5.96875,-79646.09375
5.9765625,-79638.58594
5.984375,-79619.84375
5.9921875,-79591.625
6,-79557.4375
6.0078125,-79522.73438
6.015625,-79490.6875
6.0234375,-79460.34375
6.03125,-79429.52344
6.0390625,-79397.04688
6.046875,-79365.63281
6.0546875,-79342.47656
6.0625,-79334.67188
6.0703125,-79346.1875
6.078125,-79374.78906
6.0859375,-79412.78125
6.09375,-79455.82031
6.1015625,-79505.10156
6.109375,-79570.84375
6.1171875,-79666.04688
6.125,-79794.60938
6.1328125,-79946.80469
6.140625,-80095.57813
6.1484375,-80207.82031
6.15625,-80259.32813
6.1640625,-80244.54688
6.171875,-80179.64063
6.1796875,-80091.86719
6.1875,-80005.0625
6.1953125,-79929.16406
6.203125,-79856.69531
6.2109375,-79771.36719
6.21875,-79658.54688
6.2265625,-79512.17188
6.234375,-79339.4375
6.2421875,-79153.28125
6.25,-78968.26563
6.2578125,-78795.79688
6.265625,-78640.42969
6.2734375,-78504.28125
6.28125,-78385.09375
6.2890625,-78278.92969
6.296875,-78182.07031
6.3046875,-78090.79688
6.3125,-78004.96094
6.3203125,-77927.48438
6.328125,-77863.41406
6.3359375,-77817.67969
6.34375,-77790.53125
6.3515625,-77777.42969
6.359375,-77769.80469
6.3671875,-77757.46094
6.375,-77735.75
6.3828125,-77704.0625
6.390625,-77667.07813
6.3984375,-77630.73438
6.40625,-77596.61719
6.4140625,-77563.84375
6.421875,-77526.77344
6.4296875,-77479.71875
6.4375,-77420.51563
6.4453125,-77349.9375
6.453125,-77272.34375
6.4609375,-77192.26563
6.46875,-77113.02344
6.4765625,-77036.72656
6.484375,-76963.71875
6.4921875,-76894.61719
6.5,-76830.17188
6.5078125,-76767.66406
6.515625,-76706.47656
6.5234375,-76643.26563
6.53125,-76575.96094
6.5390625,-76504.64063
6.546875,-76429.82813
6.5546875,-76354.84375
6.5625,-76280.90625
6.5703125,-76207.65625
6.578125,-76134.27344
6.5859375,-76059.54688
6.59375,-75984.86719
6.6015625,-75913.23438
6.609375,-75847.59375
6.6171875,-75789.28906
6.625,-75735.71094
6.6328125,-75682.89063
6.640625,-75627.96094
6.6484375,-75570.53125
6.65625,-75516.32031
6.6640625,-75471.4375
6.671875,-75440.80469
6.6796875,-75424.80469
6.6875,-75417.17188
6.6953125,-75411.35938
6.703125,-75400.85938
6.7109375,-75383.84375
6.71875,-75363.5625
6.7265625,-75344.53125
6.734375,-75330.92969
6.7421875,-75323.21875
6.75,-75318.60938
6.7578125,-75313.23438
6.765625,-75303.46875
6.7734375,-75288.80469
6.78125,-75271.5
6.7890625,-75254.22656
6.796875,-75241.57813
6.8046875,-75235.38281
6.8125,-75236.47656
6.8203125,-75244.4375
6.828125,-75256.03125
6.8359375,-75269.625
6.84375,-75282.30469
6.8515625,-75292.10938
6.859375,-75298.96875
6.8671875,-75303.00781
6.875,-75305.76563
6.8828125,-75308.16406
6.890625,-75310.36719
6.8984375,-75312.125
6.90625,-75312.17188
6.9140625,-75310.32031
6.921875,-75307.27344
6.9296875,-75303.22656
6.9375,-75300.1875
6.9453125,-75297.97656
6.953125,-75296.20313
6.9609375,-75294.3125
6.96875,-75290.39063
6.9765625,-75285.46875
6.984375,-75280.40625
6.9921875,-75277.17969
7,-75278.66406
7.0078125,-75285.82813
7.015625,-75298.61719
7.0234375,-75314.71875
7.03125,-75330.63281
7.0390625,-75343.61719
7.046875,-75352.29688
7.0546875,-75358.33594
7.0625,-75364.99219
7.0703125,-75374.03125
7.078125,-75387.14844
7.0859375,-75401.92969
7.09375,-75415.57813
7.1015625,-75426.38281
7.109375,-75433.52344
7.1171875,-75440.39063
7.125,-75449.875
7.1328125,-75463.70313
7.140625,-75481.80469
7.1484375,-75500.86719
7.15625,-75517.78906
7.1640625,-75530.44531
7.171875,-75539.34375
7.1796875,-75547.82813
7.1875,-75559.21875
7.1953125,-75576.04688
7.203125,-75597.96094
7.2109375,-75620.71875
7.21875,-75640.89844
7.2265625,-75654.96875
7.234375,-75663.3125
7.2421875,-75669.53125
7.25,-75676.58594
7.2578125,-75687.76563
7.265625,-75701.89844
7.2734375,-75715.625
7.28125,-75726.25781
7.2890625,-75732.35156
7.296875,-75735.89844
7.3046875,-75739.60156
7.3125,-75744.6875
7.3203125,-75749.625
7.328125,-75749.60156
7.3359375,-75739.90625
7.34375,-75718.08594
7.3515625,-75683.85938
7.359375,-75641.20313
7.3671875,-75593.03125
7.375,-75541.78906
7.3828125,-75488.52344
7.390625,-75432.04688
7.3984375,-75373.51563
7.40625,-75313.67188
7.4140625,-75253.96875
7.421875,-75196.1875
7.4296875,-75140.35938
7.4375,-75086.375
7.4453125,-75033.5
7.453125,-74981.10156
7.4609375,-74929.42969
7.46875,-74878.5
7.4765625,-74829.5
7.484375,-74784.10156
7.4921875,-74742.96875
7.5,-74707.46094
7.5078125,-74676.82031
7.515625,-74647.89063
7.5234375,-74617.41406
7.53125,-74582.125
7.5390625,-74543.83594
7.546875,-74506.59375
7.5546875,-74476.0625
7.5625,-74457.07031
7.5703125,-74449.5625
7.578125,-74450.08594
7.5859375,-74452.67188
7.59375,-74452.19531
7.6015625,-74447.11719
7.609375,-74438.42188
7.6171875,-74429.32813
7.625,-74422.73438
7.6328125,-74418.8125
7.640625,-74417.96094
7.6484375,-74418.48438
7.65625,-74419.71875
7.6640625,-74422.02344
7.671875,-74424.61719
7.6796875,-74428.625
7.6875,-74433.32813
7.6953125,-74437.92969
7.703125,-74442.27344
7.7109375,-74445.50781
7.71875,-74447.85938
7.7265625,-74449.11719
7.734375,-74449.02344
7.7421875,-74448.01563
7.75,-74446.17969
7.7578125,-74444.9375
7.765625,-74445.88281
7.7734375,-74448.98438
7.78125,-74454.63281
7.7890625,-74460.23438
7.796875,-74463.28906
7.8046875,-74462.49219
7.8125,-74457.28906
7.8203125,-74451.39063
7.828125,-74448.36719
7.8359375,-74450.85156
7.84375,-74459.51563
7.8515625,-74471.15625
7.859375,-74481.82813
7.8671875,-74488.22656
7.875,-74489.75781
7.8828125,-74489.55469
7.890625,-74491.60156
7.8984375,-74499.57813
7.90625,-74514.24219
7.9140625,-74531.88281
7.921875,-74548.88281
7.9296875,-74561.00781
7.9375,-74567.4375
7.9453125,-74570.85938
7.953125,-74574.125
7.9609375,-74581.46875
7.96875,-74593.85156
7.9765625,-74610.24219
7.984375,-74629.38281
7.9921875,-74649.25781
8,-74669.13281
8.0078125,-74687.98438
8.015625,-74704.15625
8.0234375,-74716.0625
8.03125,-74722.10156
8.0390625,-74723.09375
8.046875,-74722.05469
8.0546875,-74721.89063
8.0625,-74726.40625
8.0703125,-74735.61719
8.078125,-74747.74219
8.0859375,-74760.26563
8.09375,-74770
8.1015625,-74777.35938
8.109375,-74783
8.1171875,-74788.01563
8.125,-74793.64063
8.1328125,-74799.27344
8.140625,-74804.6875
8.1484375,-74809.85938
8.15625,-74815.35938
8.1640625,-74822.55469
8.171875,-74831.53906
8.1796875,-74842.19531
8.1875,-74853.91406
8.1953125,-74865.3125
8.203125,-74877.98438
8.2109375,-74892.96094
8.21875,-74911.41406
8.2265625,-74932.80469
8.234375,-74952.28125
8.2421875,-74964.49219
8.25,-74963.04688
8.2578125,-74944.5625
8.265625,-74910.92188
8.2734375,-74867.1875
8.28125,-74820.82031
8.2890625,-74777.5625
8.296875,-74739.66406
8.3046875,-74706.38281
8.3125,-74674.10156
8.3203125,-74639.65625
8.328125,-74601.08594
8.3359375,-74556.91406
8.34375,-74509.03125
8.3515625,-74459.14063
8.359375,-74410.41406
8.3671875,-74366.94531
8.375,-74330.63281
8.3828125,-74303.07031
8.390625,-74281.80469
8.3984375,-74262.15625
8.40625,-74239.60156
8.4140625,-74210.78125
8.421875,-74176.21875
8.4296875,-74139.27344
8.4375,-74104.32813
8.4453125,-74075.10938
8.453125,-74051.94531
8.4609375,-74033.17969
8.46875,-74016.16406
8.4765625,-73997.42188
8.484375,-73977.00781
8.4921875,-73955.20313
8.5,-73934.0625
8.5078125,-73916.07813
8.515625,-73902.5
8.5234375,-73895.4375
8.53125,-73894.42969
8.5390625,-73897.38281
8.546875,-73901.60156
8.5546875,-73903.25781
8.5625,-73900.32031
8.5703125,-73892.84375
8.578125,-73882.70313
8.5859375,-73873.13281
8.59375,-73865.38281
8.6015625,-73859.0625
8.609375,-73852.25
8.6171875,-73841.88281
8.625,-73829
8.6328125,-73816.04688
8.640625,-73807.53125
8.6484375,-73807.74219
8.65625,-73816.5
8.6640625,-73832.15625
8.671875,-73850
8.6796875,-73865.77344
8.6875,-73878.125
8.6953125,-73887.3125
8.703125,-73895.16406
8.7109375,-73903.08594
8.71875,-73911.14844
8.7265625,-73919.67969
8.734375,-73928.40625
8.7421875,-73938.49219
8.75,-73951.32813
8.7578125,-73966.26563
8.765625,-73983.39844
8.7734375,-74000.69531
8.78125,-74016.78906
8.7890625,-74032.01563
8.796875,-74045.78906
8.8046875,-74059.04688
8.8125,-74070.69531
8.8203125,-74079.36719
8.828125,-74085.1875
8.8359375,-74089.34375
8.84375,-74094.89063
8.8515625,-74104.53125
8.859375,-74118.78906
8.8671875,-74136.78125
8.875,-74155.90625
8.8828125,-74175.40625
8.890625,-74196.36719
8.8984375,-74219.00781
8.90625,-74243.71094
8.9140625,-74266.49219
8.921875,-74282.32813
8.9296875,-74288.89063
8.9375,-74286.89063
8.9453125,-74283.32031
8.953125,-74285.02344
8.9609375,-74295.46094
8.96875,-74312.83594
8.9765625,-74330.375
8.984375,-74341.74219
8.9921875,-74344.64844
9,-74341.85156
9.0078125,-74340
9.015625,-74343.84375
9.0234375,-74355.35938
9.03125,-74372.89844
9.0390625,-74392.05469
9.046875,-74410.75781
9.0546875,-74426.89844
9.0625,-74439.46875
9.0703125,-74448.26563
9.078125,-74451.89063
9.0859375,-74451.90625
9.09375,-74450.70313
9.1015625,-74451.89063
9.109375,-74459.02344
9.1171875,-74472.3125
9.125,-74489.30469
9.1328125,-74505.39844
9.140625,-74515.52344
9.1484375,-74516.84375
9.15625,-74507.32031
9.1640625,-74486.85938
9.171875,-74456.375
9.1796875,-74416.54688
9.1875,-74371.53125
9.1953125,-74325.36719
9.203125,-74282.35938
9.2109375,-74245.28906
9.21875,-74211.96094
9.2265625,-74179.13281
9.234375,-74142.03125
9.2421875,-74098.25781
9.25,-74049.63281
9.2578125,-73999.92969
9.265625,-73953.57813
9.2734375,-73912.91406
9.28125,-73877.07813
9.2890625,-73844.3125
9.296875,-73811.82813
9.3046875,-73778.39844
9.3125,-73743.98438
9.3203125,-73707.71094
9.328125,-73671
9.3359375,-73634.66406
9.34375,-73600.95313
9.3515625,-73573.32813
9.359375,-73552.49219
9.3671875,-73538.03906
9.375,-73525.42969
9.3828125,-73509.24219
9.390625,-73486.42188
9.3984375,-73457.88281
9.40625,-73429.17188
9.4140625,-73407.19531
9.421875,-73395.96094
9.4296875,-73395.40625
9.4375,-73400.21875
9.4453125,-73404.49219
9.453125,-73404.71875
9.4609375,-73400.25
9.46875,-73395.80469
9.4765625,-73395.35156
9.484375,-73401.20313
9.4921875,-73413
9.5,-73426.3125
9.5078125,-73437.94531
9.515625,-73445.09375
9.5234375,-73447.78906
9.53125,-73448.5625
9.5390625,-73450.25781
9.546875,-73455.53125
9.5546875,-73465.52344
9.5625,-73479.42969
9.5703125,-73496.41406
9.578125,-73514.23438
9.5859375,-73531.28906
9.59375,-73546.51563
9.6015625,-73557.78906
9.609375,-73565.97656
9.6171875,-73571.64063
9.625,-73576.69531
9.6328125,-73584.07813
9.640625,-73594.39844
9.6484375,-73608.46094
9.65625,-73624.875
9.6640625,-73642.34375
9.671875,-73660.70313
9.6796875,-73680.14844
9.6875,-73700.96875
9.6953125,-73722.21875
9.703125,-73740.76563
9.7109375,-73754.72656
9.71875,-73762.80469
9.7265625,-73767.57031
9.734375,-73773.82813
9.7421875,-73784.82031
9.75,-73803.02344
9.7578125,-73826.05469
9.765625,-73849.79688
9.7734375,-73871.47656
9.78125,-73889.45313
9.7890625,-73906.23438
9.796875,-73924.14844
9.8046875,-73944.61719
9.8125,-73967.25
9.8203125,-73989.78906
9.828125,-74010.46875
9.8359375,-74028.86719
9.84375,-74045.07813
9.8515625,-74061.35156
9.859375,-74078.29688
9.8671875,-74096.90625
9.875,-74118.10156
9.8828125,-74141.3125
9.890625,-74167.46094
9.8984375,-74194.98438
9.90625,-74221.39844
9.9140625,-74244.53906
9.921875,-74261.77344
9.9296875,-74274.10156
9.9375,-74283.61719
9.9453125,-74293.21875
9.953125,-74305.11719
9.9609375,-74319.05469
9.96875,-74333.47656
9.9765625,-74346.83594
9.984375,-74357.76563
9.9921875,-74367.64844
10,-74376.9375
10.0078125,-74386.23438
10.015625,-74395.49219
10.0234375,-74402.94531
10.03125,-74409.53906
10.0390625,-74415.86719
10.046875,-74423.25
10.0546875,-74433.1875
10.0625,-74444.54688
10.0703125,-74456.61719
10.078125,-74467.55469
10.0859375,-74476.09375
10.09375,-74481.625
10.1015625,-74482.96094
10.109375,-74478.42188
10.1171875,-74466.04688
10.125,-74443.5625
10.1328125,-74411.72656
10.140625,-74371.64063
10.1484375,-74326.21875
10.15625,-74278.59375
10.1640625,-74229.57813
10.171875,-74181.35156
10.1796875,-74134.29688
10.1875,-74089.14063
10.1953125,-74047.21875
10.203125,-74007.85156
10.2109375,-73970.92188
10.21875,-73935.07813
10.2265625,-73899.73438
10.234375,-73865.9375
10.2421875,-73835.30469
10.25,-73809.33594
10.2578125,-73787.97656
10.265625,-73768.16406
10.2734375,-73747.52344
10.28125,-73723.53906
10.2890625,-73697.29688
10.296875,-73672.67969
10.3046875,-73652.63281
10.3125,-73639.76563
10.3203125,-73631.53906
10.328125,-73622.71875
10.3359375,-73608.72656
10.34375,-73586.57813
10.3515625,-73558.92188
10.359375,-73530.82031
10.3671875,-73507.72656
10.375,-73493.08594
10.3828125,-73486.4375
10.390625,-73484.88281
10.3984375,-73485.15625
10.40625,-73484.10156
10.4140625,-73482.25
10.421875,-73480.21875
10.4296875,-73480.17969
10.4375,-73484.25
10.4453125,-73492.01563
10.453125,-73503.71875
10.4609375,-73516.83594
10.46875,-73528.5
10.4765625,-73537.14063
10.484375,-73541.55469
10.4921875,-73543.94531
10.5,-73546.75781
10.5078125,-73551.97656
10.515625,-73559.78906
10.5234375,-73567.6875
10.53125,-73572.75
10.5390625,-73573.69531
10.546875,-73571.125
10.5546875,-73569.89063
10.5625,-73573.75781
10.5703125,-73585.1875
10.578125,-73603.58594
10.5859375,-73624.07813
10.59375,-73643.19531
10.6015625,-73657.46875
10.609375,-73666.54688
10.6171875,-73673.03125
10.625,-73679.61719
10.6328125,-73689.42188
10.640625,-73703.5625
10.6484375,-73721.4375
10.65625,-73741.29688
10.6640625,-73760.32031
10.671875,-73776.04688
10.6796875,-73787.23438
10.6875,-73793.32031
10.6953125,-73797.14844
10.703125,-73801.125
10.7109375,-73807.94531
10.71875,-73819.05469
10.7265625,-73832.17969
10.734375,-73845.59375
10.7421875,-73856.26563
10.75,-73863.00781
10.7578125,-73867.66406
10.765625,-73872.89063
10.7734375,-73882.38281
10.78125,-73897.89844
10.7890625,-73918.65625
10.796875,-73941.99219
10.8046875,-73963.75
10.8125,-73981.125
10.8203125,-73993.63281
10.828125,-74002.5
10.8359375,-74012.20313
10.84375,-74025.45313
10.8515625,-74043.67969
10.859375,-74065.77344
10.8671875,-74087.29688
10.875,-74106.04688
10.8828125,-74120.46875
10.890625,-74132.07813
10.8984375,-74144.63281
10.90625,-74160.22656
10.9140625,-74179.45313
10.921875,-74199.75
10.9296875,-74217.84375
10.9375,-74232.26563
10.9453125,-74244.10156
10.953125,-74256.90625
10.9609375,-74274.07031
10.96875,-74295.13281
10.9765625,-74317.74219
10.984375,-74336.14844
10.9921875,-74346.65625
11,-74349.67969
11.0078125,-74347.92969
11.015625,-74347.13281
11.0234375,-74349.26563
11.03125,-74351.6875
11.0390625,-74348.88281
11.046875,-74334.3125
11.0546875,-74306.14063
11.0625,-74267.92969
11.0703125,-74226.85938
11.078125,-74190.11719
11.0859375,-74159.85938
11.09375,-74133.64063
11.1015625,-74106.51563
11.109375,-74073.67969
11.1171875,-74036.30469
11.125,-73997.67188
11.1328125,-73962.51563
11.140625,-73933.42969
11.1484375,-73907.80469
11.15625,-73882.90625
11.1640625,-73855.23438
11.171875,-73824.32031
11.1796875,-73793.32031
11.1875,-73765.50781
11.1953125,-73743.89844
11.203125,-73729.01563
11.2109375,-73719.48438
11.21875,-73713.73438
11.2265625,-73709.45313
11.234375,-73704.91406
11.2421875,-73698.04688
11.25,-73685.57813
11.2578125,-73667.01563
11.265625,-73642.52344
11.2734375,-73615.875
11.28125,-73593.08594
11.2890625,-73578.38281
11.296875,-73575.30469
11.3046875,-73582.08594
11.3125,-73593.875
11.3203125,-73605.3125
11.328125,-73611.58594
11.3359375,-73611.9375
11.34375,-73608.55469
11.3515625,-73605.28125
11.359375,-73605.66406
11.3671875,-73609.91406
11.375,-73616.02344
11.3828125,-73620.85156
11.390625,-73621.4375
11.3984375,-73619.875
11.40625,-73619.75781
11.4140625,-73625.89063
11.421875,-73640.80469
11.4296875,-73661
11.4375,-73681.35938
11.4453125,-73695.26563
11.453125,-73699.94531
11.4609375,-73698.5625
11.46875,-73696.78906
11.4765625,-73700.4375
11.484375,-73710.6875
11.4921875,-73723.82813
11.5,-73734.71094
11.5078125,-73739.41406
11.515625,-73739.70313
11.5234375,-73741.125
11.53125,-73748.02344
11.5390625,-73762.58594
11.546875,-73780.42188
11.5546875,-73795.3125
11.5625,-73802.92188
11.5703125,-73802.23438
11.578125,-73799.23438
11.5859375,-73800.46875
11.59375,-73810.78906
11.6015625,-73831.14063
11.609375,-73857.25
11.6171875,-73883.60156
11.625,-73905.41406
11.6328125,-73920.66406
11.640625,-73930.92969
11.6484375,-73939.03906
11.65625,-73948.78125
11.6640625,-73962.76563
11.671875,-73980.67188
11.6796875,-74001.97656
11.6875,-74023.61719
11.6953125,-74043.28125
11.703125,-74060.46875
11.7109375,-74075.10156
11.71875,-74090.34375
11.7265625,-74107.75781
11.734375,-74127.32031
11.7421875,-74147.42188
11.75,-74164.32813
11.7578125,-74175.64063
11.765625,-74180.97656
11.7734375,-74182.42969
11.78125,-74184.125
11.7890625,-74189.05469
11.796875,-74199.00781
11.8046875,-74213.70313
11.8125,-74230.35156
11.8203125,-74248.01563
11.828125,-74265.11719
11.8359375,-74281.80469
11.84375,-74299.0625
11.8515625,-74316.00781
11.859375,-74332.99219
11.8671875,-74348.40625
11.875,-74360.875
11.8828125,-74370.65625
11.890625,-74378.66406
11.8984375,-74387.53906
11.90625,-74399.66406
11.9140625,-74415.83594
11.921875,-74435.09375
11.9296875,-74453.6875
11.9375,-74468.03125
11.9453125,-74476.29688
11.953125,-74478.5625
11.9609375,-74479.875
11.96875,-74485.02344
11.9765625,-74497.73438
11.984375,-74518
11.9921875,-74539.41406
12,-74554.1875
12.0078125,-74553.32813
12.015625,-74532.42188
12.0234375,-74494.10938
12.03125,-74446.03906
12.0390625,-74398.875
12.046875,-74360.46875
12.0546875,-74332.63281
12.0625,-74311.5
12.0703125,-74289.5625
12.078125,-74261.76563
12.0859375,-74228.00781
12.09375,-74191.85938
12.1015625,-74159.90625
12.109375,-74134.57031
12.1171875,-74113.98438
12.125,-74093.60938
12.1328125,-74068.26563
12.140625,-74038.8125
12.1484375,-74009.40625
12.15625,-73985.75
12.1640625,-73971.89063
12.171875,-73966.23438
12.1796875,-73964.20313
12.1875,-73960.92969
12.1953125,-73954.48438
12.203125,-73947.58594
12.2109375,-73943.72656
12.21875,-73945.46875
12.2265625,-73951.64063
12.234375,-73956.78906
12.2421875,-73957.34375
12.25,-73951.39844
12.2578125,-73941.77344
12.265625,-73934.40625
12.2734375,-73933.21094
12.28125,-73940.625
12.2890625,-73953.78125
12.296875,-73967.46094
12.3046875,-73977.625
12.3125,-73982.52344
12.3203125,-73984.625
12.328125,-73988.44531
12.3359375,-73997.85938
12.34375,-74014.42188
12.3515625,-74034.96875
12.359375,-74054.17188
12.3671875,-74066.57813
12.375,-74068.39844
12.3828125,-74062.28906
12.390625,-74053.625
12.3984375,-74049.72656
12.40625,-74056.35938
12.4140625,-74072.96094
12.421875,-74095.78906
12.4296875,-74117.32031
12.4375,-74131.34375
12.4453125,-74136.80469
12.453125,-74136.90625
12.4609375,-74138.19531
12.46875,-74146.21094
12.4765625,-74162.28125
12.484375,-74183.89063
12.4921875,-74205.1875
12.5,-74221.79688
12.5078125,-74232.54688
12.515625,-74238.33594
12.5234375,-74243.6875
12.53125,-74251.07031
12.5390625,-74261.39844
12.546875,-74274.48438
12.5546875,-74287.97656
12.5625,-74301.75781
12.5703125,-74315.15625
12.578125,-74327.79688
12.5859375,-74339.75
12.59375,-74350.32031
12.6015625,-74360.03125
12.609375,-74370.52344
12.6171875,-74383.89063
12.625,-74402.57813
12.6328125,-74426.34375
12.640625,-74453.51563
12.6484375,-74481.22656
12.65625,-74505.61719
12.6640625,-74526.375
12.671875,-74543.54688
12.6796875,-74558.42969
12.6875,-74572.72656
12.6953125,-74585.72656
12.703125,-74597.90625
12.7109375,-74608.96094
12.71875,-74619.30469
12.7265625,-74630.51563
12.734375,-74643.125
12.7421875,-74657.01563
12.75,-74670.8125
12.7578125,-74682.39063
12.765625,-74691.17969
12.7734375,-74696.92188
12.78125,-74701.1875
12.7890625,-74705.99219
12.796875,-74711.55469
12.8046875,-74719.22656
12.8125,-74728.52344
12.8203125,-74739.24219
12.828125,-74752.25781
12.8359375,-74767.03125
12.84375,-74784.38281
12.8515625,-74803.25
12.859375,-74822.39844
12.8671875,-74840.9375
12.875,-74858.21875
12.8828125,-74874.71875
12.890625,-74891.25781
12.8984375,-74907.91406
12.90625,-74925.03906
12.9140625,-74941.5
12.921875,-74956.8125
12.9296875,-74970.96875
12.9375,-74982.85938
12.9453125,-74993.32813
12.953125,-75001.22656
12.9609375,-75005.35938
12.96875,-75005.05469
12.9765625,-74998.57031
12.984375,-74986.45313
12.9921875,-74968.97656
13,-74947.3125
13.0078125,-74923.09375
13.015625,-74897.67969
13.0234375,-74872.42969
13.03125,-74848.32813
13.0390625,-74824.89063
13.046875,-74802.66406
13.0546875,-74780.61719
13.0625,-74758.58594
13.0703125,-74736.65625
13.078125,-74713.44531
13.0859375,-74689.6875
13.09375,-74665.26563
13.1015625,-74641.3125
13.109375,-74620.69531
13.1171875,-74604.89844
13.125,-74595.47656
13.1328125,-74590.625
13.140625,-74586.50781
13.1484375,-74579.39063
13.15625,-74567.0625
13.1640625,-74551.17969
13.171875,-74536.29688
13.1796875,-74526.57031
13.1875,-74525.41406
13.1953125,-74531.23438
13.203125,-74540.20313
13.2109375,-74547.78906
13.21875,-74549.42969
13.2265625,-74545.13281
13.234375,-74536.02344
13.2421875,-74525.14844
13.25,-74517.04688
13.2578125,-74514.47656
13.265625,-74520.21875
13.2734375,-74533.76563
13.28125,-74551.85938
13.2890625,-74569.35156
13.296875,-74580.53906
13.3046875,-74582.24219
13.3125,-74575.4375
13.3203125,-74563.625
13.328125,-74553.26563
13.3359375,-74548.17188
13.34375,-74550.13281
13.3515625,-74558.53906
13.359375,-74570.23438
13.3671875,-74584.32813
13.375,-74599.21094
13.3828125,-74613.6875
13.390625,-74627.08594
13.3984375,-74637.48438
13.40625,-74645.46094
13.4140625,-74652.41406
13.421875,-74660.90625
13.4296875,-74673.01563
13.4375,-74687.92969
13.4453125,-74702.45313
13.453125,-74712.92188
13.4609375,-74716.5625
13.46875,-74716.07813
13.4765625,-74715.86719
13.484375,-74721.40625
13.4921875,-74735.625
13.5,-74755.71094
13.5078125,-74777.01563
13.515625,-74793.70313
13.5234375,-74802.77344
13.53125,-74805.96875
13.5390625,-74806.60156
13.546875,-74809.61719
13.5546875,-74817.25781
13.5625,-74828.92188
13.5703125,-74842.625
13.578125,-74855.69531
13.5859375,-74867.16406
13.59375,-74877.89844
13.6015625,-74888.61719
13.609375,-74901.54688
13.6171875,-74916.46094
13.625,-74932.6875
13.6328125,-74949.28125
13.640625,-74963.9375
13.6484375,-74977.21094
13.65625,-74989.14063
13.6640625,-75000.64063
13.671875,-75013.41406
13.6796875,-75027.5625
13.6875,-75043.25781
13.6953125,-75059.70313
13.703125,-75076.26563
13.7109375,-75093.42969
13.71875,-75111.8125
13.7265625,-75132.21875
13.734375,-75154.4375
13.7421875,-75175.46094
13.75,-75193.125
13.7578125,-75204.67969
13.765625,-75210.64063
13.7734375,-75214.84375
13.78125,-75220.92188
13.7890625,-75233.28125
13.796875,-75251.5625
13.8046875,-75272.15625
13.8125,-75290.64844
13.8203125,-75303.19531
13.828125,-75309.9375
13.8359375,-75313.78906
13.84375,-75318.5625
13.8515625,-75327.07813
13.859375,-75338.63281
13.8671875,-75351.125
13.875,-75362.17188
13.8828125,-75369.84375
13.890625,-75375.78906
13.8984375,-75380.79688
13.90625,-75385.22656
13.9140625,-75387.9375
13.921875,-75384.83594
13.9296875,-75374.03125
13.9375,-75354.28906
13.9453125,-75327.01563
13.953125,-75295.92188
13.9609375,-75263.74219
13.96875,-75232.27344
13.9765625,-75201.125
13.984375,-75168.89844
13.9921875,-75135.32813
14,-75101.25
14.0078125,-75069.17188
14.015625,-75042.36719
14.0234375,-75021.58594
14.03125,-75007.42969
14.0390625,-74997.32031
14.046875,-74988.66406
14.0546875,-74980.00781
14.0625,-74969.75781
14.0703125,-74959.14063
14.078125,-74948.4375
14.0859375,-74937.53125
14.09375,-74926.55469
14.1015625,-74914.98438
14.109375,-74903.83594
14.1171875,-74894.92188
14.125,-74890.36719
14.1328125,-74891.98438
14.140625,-74898.90625
14.1484375,-74908.75
14.15625,-74917.98438
14.1640625,-74922.39063
14.171875,-74921.75
14.1796875,-74917.03125
14.1875,-74911.86719
14.1953125,-74910.875
14.203125,-74915.67969
14.2109375,-74927.23438
14.21875,-74942.73438
14.2265625,-74958.22656
14.234375,-74971.01563
14.2421875,-74979.70313
14.25,-74985.82031
14.2578125,-74992.17969
14.265625,-75000.95313
14.2734375,-75013.07031
14.28125,-75026.32031
14.2890625,-75037.90625
14.296875,-75045.47656
14.3046875,-75047.35938
14.3125,-75046.19531
14.3203125,-75044.72656
14.328125,-75046.25
14.3359375,-75053.22656
14.34375,-75064.63281
14.3515625,-75079.54688
14.359375,-75095.4375
14.3671875,-75110.54688
14.375,-75125.25
14.3828125,-75140.14063
14.390625,-75156.1875
14.3984375,-75173
14.40625,-75188.39844
14.4140625,-75200.42969
14.421875,-75207.47656
14.4296875,-75211.02344
14.4375,-75214.59375
14.4453125,-75220.40625
14.453125,-75230.57813
14.4609375,-75243.19531
14.46875,-75255.375
14.4765625,-75266.03125
14.484375,-75274.90625
14.4921875,-75285.21094
14.5,-75298.16406
14.5078125,-75312.40625
14.515625,-75324.64844
14.5234375,-75331.1875
14.53125,-75332.07031
14.5390625,-75331.67969
14.546875,-75336.26563
14.5546875,-75351.05469
14.5625,-75375.42969
14.5703125,-75404.44531
14.578125,-75431.3125
14.5859375,-75449.89844
14.59375,-75460.45313
14.6015625,-75465.8125
14.609375,-75470.55469
14.6171875,-75478.99219
14.625,-75491.73438
14.6328125,-75509.46875
14.640625,-75530.96094
14.6484375,-75555.02344
14.65625,-75580.34375
14.6640625,-75604.35938
14.671875,-75624.42188
14.6796875,-75638.1875
14.6875,-75644.24219
14.6953125,-75643.5625
14.703125,-75637.32813
14.7109375,-75627.80469
14.71875,-75617.32031
14.7265625,-75606.54688
14.734375,-75597.9375
14.7421875,-75592.19531
14.75,-75589.69531
14.7578125,-75590.99219
14.765625,-75594.91406
14.7734375,-75602.16406
14.78125,-75612.82031
14.7890625,-75626.94531
14.796875,-75643.96094
14.8046875,-75661.65625
14.8125,-75677.71875
14.8203125,-75690.97656
14.828125,-75701.65625
14.8359375,-75712.39844
14.84375,-75724.39063
14.8515625,-75737.03906
14.859375,-75747.03125
14.8671875,-75748.19531
14.875,-75737.89844
14.8828125,-75715.70313
14.890625,-75685.28906
14.8984375,-75652.92969
14.90625,-75622.14844
14.9140625,-75594.85938
14.921875,-75568.57813
14.9296875,-75539.375
14.9375,-75504.42969
14.9453125,-75463.125
14.953125,-75418.30469
14.9609375,-75374.97656
14.96875,-75337.90625
14.9765625,-75310.9375
14.984375,-75293.46094
14.9921875,-75281.96875
15,-75271.25781
15.0078125,-75254.95313
15.015625,-75232.28906
15.0234375,-75205.35156
15.03125,-75179.70313
15.0390625,-75161.8125
15.046875,-75153.45313
15.0546875,-75152.90625
15.0625,-75153.46875
15.0703125,-75147.63281
15.078125,-75130.90625
15.0859375,-75103.23438
15.09375,-75069.51563
15.1015625,-75037.07813
15.109375,-75011.46094
15.1171875,-74996.46094
15.125,-74990.6875
15.1328125,-74990.91406
15.140625,-74993.71875
15.1484375,-74995.60938
15.15625,-74997.5625
15.1640625,-75000.96875
15.171875,-75007.98438
15.1796875,-75020.60156
15.1875,-75037.5625
15.1953125,-75057.45313
15.203125,-75077.67969
15.2109375,-75096.625
15.21875,-75114.66406
15.2265625,-75133.02344
15.234375,-75153.45313
15.2421875,-75176.875
15.25,-75201.75781
15.2578125,-75226.74219
15.265625,-75248.76563
15.2734375,-75266.03125
15.28125,-75277.95313
15.2890625,-75283.14063
15.296875,-75282.80469
15.3046875,-75277.08594
15.3125,-75267.05469
15.3203125,-75255.5625
15.328125,-75244.92969
15.3359375,-75238.75
15.34375,-75238.27344
15.3515625,-75242.53125
15.359375,-75248.66406
15.3671875,-75252.79688
15.375,-75252.69531
15.3828125,-75249.30469
15.390625,-75245.52344
15.3984375,-75247.0625
15.40625,-75256.96875
15.4140625,-75275.80469
15.421875,-75300.85938
15.4296875,-75326.14063
15.4375,-75348.625
15.4453125,-75366.875
15.453125,-75382.78125
15.4609375,-75400.29688
15.46875,-75420.58594
15.4765625,-75443.21094
15.484375,-75464.21094
15.4921875,-75479.45313
15.5,-75487.49219
15.5078125,-75489.88281
15.515625,-75490.94531
15.5234375,-75495.17969
15.53125,-75504.04688
15.5390625,-75518.04688
15.546875,-75534.8125
15.5546875,-75552.80469
15.5625,-75571.36719
15.5703125,-75588.22656
15.578125,-75601.9375
15.5859375,-75608.48438
15.59375,-75604.52344
15.6015625,-75590.47656
15.609375,-75569.6875
15.6171875,-75550.17969
15.625,-75539.14063
15.6328125,-75540.25781
15.640625,-75552.03125
15.6484375,-75568.04688
15.65625,-75581.3125
15.6640625,-75587.67188
15.671875,-75586.71094
15.6796875,-75583.60156
15.6875,-75583.41406
15.6953125,-75590.32813
15.703125,-75605.48438
15.7109375,-75625.33594
15.71875,-75646.65625
15.7265625,-75665.32031
15.734375,-75679.28125
15.7421875,-75689.95313
15.75,-75699.46875
15.7578125,-75712.15625
15.765625,-75730.63281
15.7734375,-75755.33594
15.78125,-75784.24219
15.7890625,-75812.61719
15.796875,-75835.48438
15.8046875,-75849.34375
15.8125,-75852.14844
15.8203125,-75845.9375
15.828125,-75832.53906
15.8359375,-75814.10938
15.84375,-75791.80469
15.8515625,-75764.03906
15.859375,-75730.875
15.8671875,-75691.61719
15.875,-75646.78125
15.8828125,-75598.20313
15.890625,-75546.45313
15.8984375,-75493.14063
15.90625,-75439.1875
15.9140625,-75386.375
15.921875,-75337.78125
15.9296875,-75296.20313
15.9375,-75263.6875
15.9453125,-75240.1875
15.953125,-75222.46875
15.9609375,-75208.01563
15.96875,-75193.77344
15.9765625,-75179.61719
15.984375,-75167.5625
15.9921875,-75158.46875
16,-75153.80469
16.0078125,-75151.46875
16.015625,-75148.26563
16.0234375,-75142.25
16.03125,-75132.42969
16.0390625,-75120.92188
16.046875,-75110.25
16.0546875,-75102.14063
16.0625,-75096.73438
16.0703125,-75092.3125
16.078125,-75087.26563
16.0859375,-75081.46094
16.09375,-75075.01563
16.1015625,-75070.35938
16.109375,-75067.49219
16.1171875,-75065.6875
16.125,-75063.42969
16.1328125,-75058.01563
16.140625,-75050.07031
16.1484375,-75040.48438
16.15625,-75031.10938
16.1640625,-75024.05469
16.171875,-75019.39063
16.1796875,-75017.33594
16.1875,-75017.47656
16.1953125,-75019.90625
16.203125,-75025.59375
16.2109375,-75034.89844
16.21875,-75047.88281
16.2265625,-75064.13281
16.234375,-75081.71094
16.2421875,-75100.17188
16.25,-75117.67969
16.2578125,-75133.10938
16.265625,-75145.9375
16.2734375,-75154.85156
16.28125,-75161.72656
16.2890625,-75168.08594
16.296875,-75175.82031
16.3046875,-75186.45313
16.3125,-75198.63281
16.3203125,-75210.39844
16.328125,-75219.54688
16.3359375,-75225.66406
16.34375,-75231.125
16.3515625,-75238.59375
16.359375,-75250.14063
16.3671875,-75264.76563
16.375,-75277.625
16.3828125,-75285.11719
16.390625,-75284.60938
16.3984375,-75278.28906
16.40625,-75271.80469
16.4140625,-75269.58594
16.421875,-75275.125
16.4296875,-75286.39063
16.4375,-75298.47656
16.4453125,-75307
16.453125,-75309.15625
16.4609375,-75306.28906
16.46875,-75301.82031
16.4765625,-75299.50781
16.484375,-75302.125
16.4921875,-75309.63281
16.5,-75321.03125
16.5078125,-75333.86719
16.515625,-75345.09375
16.5234375,-75353.98438
16.53125,-75359.58594
16.5390625,-75363.23438
16.546875,-75367.96094
16.5546875,-75375.82031
16.5625,-75390.22656
16.5703125,-75411.375
16.578125,-75437.55469
16.5859375,-75466.32813
16.59375,-75494.03125
16.6015625,-75518.67188
16.609375,-75539.21094
16.6171875,-75555.82031
16.625,-75569.88281
16.6328125,-75582.38281
16.640625,-75595.09375
16.6484375,-75609.55469
16.65625,-75625.32031
16.6640625,-75642.375
16.671875,-75657.63281
16.6796875,-75668.17969
16.6875,-75672.58594
16.6953125,-75670.85156
16.703125,-75667.91406
16.7109375,-75669.09375
16.71875,-75678.58594
16.7265625,-75697.74219
16.734375,-75722.80469
16.7421875,-75748.14063
16.75,-75768.21875
16.7578125,-75780.01563
16.765625,-75784.1875
16.7734375,-75782.30469
16.78125,-75776.24219
16.7890625,-75766.22656
16.796875,-75749.92188
16.8046875,-75726.98438
16.8125,-75696.9375
16.8203125,-75661.80469
16.828125,-75625.05469
16.8359375,-75588.35156
16.84375,-75554.32813
16.8515625,-75523.33594
16.859375,-75495.35938
16.8671875,-75471.15625
16.875,-75450.50781
16.8828125,-75433.10938
16.890625,-75417.39844
16.8984375,-75400.89063
16.90625,-75382.24219
16.9140625,-75360.89844
16.921875,-75339.05469
16.9296875,-75320.32813
16.9375,-75306.64063
16.9453125,-75299.70313
16.953125,-75296.91406
16.9609375,-75294.53906
16.96875,-75289.5
16.9765625,-75279.46094
16.984375,-75266.74219
16.9921875,-75254.4375
17,-75245.53125
17.0078125,-75242.25
17.015625,-75243.03125
17.0234375,-75245.39844
17.03125,-75246.29688
17.0390625,-75243.53906
17.046875,-75236.95313
17.0546875,-75226.82031
17.0625,-75214.67969
17.0703125,-75202.39844
17.078125,-75190.88281
17.0859375,-75183.1875
17.09375,-75180.6875
17.1015625,-75184.23438
17.109375,-75193.20313
17.1171875,-75203.40625
17.125,-75211.73438
17.1328125,-75215.07813
17.140625,-75213.67969
17.1484375,-75211.6875
17.15625,-75214.00781
17.1640625,-75224.4375
17.171875,-75242.55469
17.1796875,-75263.45313
17.1875,-75281.46094
17.1953125,-75292.24219
17.203125,-75296.74219
17.2109375,-75300.1875
17.21875,-75307.39844
17.2265625,-75322.17188
17.234375,-75342.00781
17.2421875,-75361.42188
17.25,-75375.5
17.2578125,-75381.00781
17.265625,-75380.71094
17.2734375,-75378.80469
17.28125,-75379.32813
17.2890625,-75384.60156
17.296875,-75393.70313
17.3046875,-75404.57813
17.3125,-75415.13281
17.3203125,-75423.57813
17.328125,-75429.75781
17.3359375,-75433.39844
17.34375,-75435.86719
17.3515625,-75439.51563
17.359375,-75445.82813
17.3671875,-75457.46875
17.375,-75473.64844
17.3828125,-75491.84375
17.390625,-75509.35156
17.3984375,-75523.22656
17.40625,-75535.02344
17.4140625,-75547.4375
17.421875,-75563.75781
17.4296875,-75585.53906
17.4375,-75610.64844
17.4453125,-75635.21094
17.453125,-75655.51563
17.4609375,-75669.67188
17.46875,-75679.34375
17.4765625,-75686.48438
17.484375,-75693.0625
17.4921875,-75699.48438
17.5,-75703.63281
17.5078125,-75705.88281
17.515625,-75706.89844
17.5234375,-75709.17188
17.53125,-75715.85156
17.5390625,-75726.54688
17.546875,-75739.875
17.5546875,-75751.89844
17.5625,-75759.67188
17.5703125,-75763.46094
17.578125,-75766.17188
17.5859375,-75772.42188
17.59375,-75785.58594
17.6015625,-75804.73438
17.609375,-75826.75781
17.6171875,-75845.53125
17.625,-75856.94531
17.6328125,-75860.53906
17.640625,-75858.24219
17.6484375,-75856.13281
17.65625,-75858.35156
17.6640625,-75866.5
17.671875,-75879.97656
17.6796875,-75894.76563
17.6875,-75908.67969
17.6953125,-75920.48438
17.703125,-75931.33594
17.7109375,-75943.8125
17.71875,-75959.27344
17.7265625,-75977.20313
17.734375,-75994.57031
17.7421875,-76005.60938
17.75,-76006.07031
17.7578125,-75992.33594
17.765625,-75965.04688
17.7734375,-75928.50781
17.78125,-75887.65625
17.7890625,-75849.05469
17.796875,-75815.09375
17.8046875,-75784.72656
17.8125,-75754.90625
17.8203125,-75720.88281
17.828125,-75681.55469
17.8359375,-75638.42188
17.84375,-75595.72656
17.8515625,-75558.33594
17.859375,-75528.55469
17.8671875,-75505.78906
17.875,-75487.1875
17.8828125,-75468.58594
17.890625,-75449.125
17.8984375,-75429.38281
17.90625,-75412.99219
17.9140625,-75404.23438
17.921875,-75403.98438
17.9296875,-75411.625
17.9375,-75421.67969
17.9453125,-75427.5625
17.953125,-75425.14844
17.9609375,-75413.21875
17.96875,-75396.60156
17.9765625,-75381.74219
17.984375,-75374.09375
17.9921875,-75375.32813
18,-75382.03125
18.0078125,-75389.20313
18.015625,-75392.6875
18.0234375,-75390.61719
18.03125,-75386.17969
18.0390625,-75382.15625
18.046875,-75380.82031
18.0546875,-75382.5625
18.0625,-75384.92969
18.0703125,-75388.04688
18.078125,-75392.02344
18.0859375,-75398.00781
18.09375,-75407.01563
18.1015625,-75417.32813
18.109375,-75426.39844
18.1171875,-75431.52344
18.125,-75431.70313
18.1328125,-75428.79688
18.140625,-75425.19531
18.1484375,-75423.875
18.15625,-75426.35156
18.1640625,-75431.78125
18.171875,-75440.33594
18.1796875,-75450.25
18.1875,-75460.22656
18.1953125,-75469.05469
18.203125,-75474.58594
18.2109375,-75478.19531
18.21875,-75482.14844
18.2265625,-75490.24219
18.234375,-75505.78125
18.2421875,-75527.53906
18.25,-75550.92188
18.2578125,-75569.27344
18.265625,-75578.28906
18.2734375,-75579.5
18.28125,-75578.82813
18.2890625,-75584.15625
18.296875,-75599.875
18.3046875,-75623.25781
18.3125,-75648.44531
18.3203125,-75667.5
18.328125,-75676.94531
18.3359375,-75679.27344
18.34375,-75679.25
18.3515625,-75683.64063
18.359375,-75694.67969
18.3671875,-75710.38281
18.375,-75726.92969
18.3828125,-75739.66406
18.390625,-75747.00781
18.3984375,-75750.22656
18.40625,-75752.48438
18.4140625,-75757.61719
18.421875,-75767.10938
18.4296875,-75780.67188
18.4375,-75796.1875
18.4453125,-75809.99219
18.453125,-75821.72656
18.4609375,-75831.97656
18.46875,-75843.8125
18.4765625,-75860.74219
18.484375,-75882.42188
18.4921875,-75907.02344
18.5,-75928.71094
18.5078125,-75942.26563
18.515625,-75945.80469
18.5234375,-75941.21094
18.53125,-75934.53125
18.5390625,-75932.13281
18.546875,-75937.57813
18.5546875,-75950.74219
18.5625,-75967.32813
18.5703125,-75982.82031
18.578125,-75994.53906
18.5859375,-76001.53125
18.59375,-76007.28125
18.6015625,-76014.09375
18.609375,-76023.65625
18.6171875,-76035.95313
18.625,-76048.13281
18.6328125,-76059.125
18.640625,-76067.82813
18.6484375,-76074.92188
18.65625,-76082.71875
18.6640625,-76092.57031
18.671875,-76105.21094
18.6796875,-76119.51563
18.6875,-76132.9375
18.6953125,-76143.30469
18.703125,-76148.08594
18.7109375,-76146.32813
18.71875,-76137.69531
18.7265625,-76120.5625
18.734375,-76095.41406
18.7421875,-76061.79688
18.75,-76021.4375
18.7578125,-75978.60938
18.765625,-75937.28125
18.7734375,-75902.64844
18.78125,-75876.09375
18.7890625,-75855.59375
18.796875,-75837.38281
18.8046875,-75816.625
18.8125,-75791.11719
18.8203125,-75761.67188
18.828125,-75731.3125
18.8359375,-75704.35156
18.84375,-75683.0625
18.8515625,-75668.1875
18.859375,-75658.60156
18.8671875,-75650.67969
18.875,-75642.70313
18.8828125,-75632.3125
18.890625,-75619.26563
18.8984375,-75605.60938
18.90625,-75592.97656
18.9140625,-75584.53125
18.921875,-75580.23438
18.9296875,-75577.35156
18.9375,-75571.97656
18.9453125,-75560.17188
18.953125,-75542.07813
18.9609375,-75522.42188
18.96875,-75508.58594
18.9765625,-75507.73438
18.984375,-75521.26563
18.9921875,-75544.75
19,-75569.28125
19.0078125,-75584.07813
19.015625,-75585.07813
19.0234375,-75573.17969
19.03125,-75555.32031
19.0390625,-75540.71875
19.046875,-75534.78125
19.0546875,-75539.88281
19.0625,-75552.58594
19.0703125,-75567.28906
19.078125,-75579.90625
19.0859375,-75588.5
19.09375,-75594.72656
19.1015625,-75601.39844
19.109375,-75610.20313
19.1171875,-75621.07031
19.125,-75630.48438
19.1328125,-75634.75
19.140625,-75631.54688
19.1484375,-75620.21875
19.15625,-75605.47656
19.1640625,-75592.61719
19.171875,-75587.10156
19.1796875,-75592.33594
19.1875,-75606.09375
19.1953125,-75624.41406
19.203125,-75640.53125
19.2109375,-75649.1875
19.21875,-75649.41406
19.2265625,-75643.72656
19.234375,-75637.60938
19.2421875,-75636.26563
19.25,-75641.82031
19.2578125,-75653.70313
19.265625,-75668.10938
19.2734375,-75681.92188
19.28125,-75693.98438
19.2890625,-75703.89844
19.296875,-75714.28125
19.3046875,-75725.92969
19.3125,-75738.63281
19.3203125,-75752.04688
19.328125,-75764.19531
19.3359375,-75775.71094
19.34375,-75786.84375
19.3515625,-75798.09375
19.359375,-75810.03906
19.3671875,-75822
19.375,-75833.32031
19.3828125,-75843.39063
19.390625,-75851.625
19.3984375,-75858.42969
19.40625,-75863.39063
19.4140625,-75867.05469
19.421875,-75870.52344
19.4296875,-75874.08594
19.4375,-75880.01563
19.4453125,-75888.39844
19.453125,-75898.38281
19.4609375,-75908.50781
19.46875,-75915.38281
19.4765625,-75918.22656
19.484375,-75916.73438
19.4921875,-75912.25781
19.5,-75907.64063
19.5078125,-75904.96094
19.515625,-75905.96094
19.5234375,-75911.46094
19.53125,-75921.10938
19.5390625,-75934.71875
19.546875,-75950.49219
19.5546875,-75966.9375
19.5625,-75982.5625
19.5703125,-75994.9375
19.578125,-76004.51563
19.5859375,-76011.3125
19.59375,-76016.40625
19.6015625,-76021.94531
19.609375,-76028.63281
19.6171875,-76038.85938
19.625,-76053.29688
19.6328125,-76071.67188
19.640625,-76092.54688
19.6484375,-76112.29688
19.65625,-76126.92188
19.6640625,-76133.50781
19.671875,-76131.20313
19.6796875,-76122.83594
19.6875,-76111.42188
19.6953125,-76099.73438
19.703125,-76087.85156
19.7109375,-76071.8125
19.71875,-76048.96875
19.7265625,-76017.02344
19.734375,-75977.39844
19.7421875,-75934.91406
19.75,-75893.54688
19.7578125,-75857.28906
19.765625,-75826.625
19.7734375,-75800.39063
19.78125,-75777.28906
19.7890625,-75755.85938
19.796875,-75735.44531
19.8046875,-75715.26563
19.8125,-75694.32813
19.8203125,-75673.35156
19.828125,-75653.66406
19.8359375,-75638.24219
19.84375,-75629.59375
19.8515625,-75626.13281
19.859375,-75625.28906
19.8671875,-75621.42188
19.875,-75611
19.8828125,-75595.32813
19.890625,-75578.32031
19.8984375,-75566.9375
19.90625,-75564.65625
19.9140625,-75570.44531
19.921875,-75579.39844
19.9296875,-75584.96094
19.9375,-75583.42969
19.9453125,-75575.64063
19.953125,-75565.78906
19.9609375,-75560.21094
19.96875,-75562.11719
19.9765625,-75571.5625
19.984375,-75585.03906
19.9921875,-75595.72656
20,-75599.86719
20.0078125,-75595.42188
20.015625,-75584.82813
20.0234375,-75574.21875
20.03125,-75568.70313
20.0390625,-75572.75
20.046875,-75585.76563
20.0546875,-75603.70313
20.0625,-75621.3125
20.0703125,-75634.32813
20.078125,-75641.9375
20.0859375,-75646.54688
20.09375,-75650.69531
20.1015625,-75657.4375
20.109375,-75666.10156
20.1171875,-75675.27344
20.125,-75683.61719
20.1328125,-75689.48438
20.140625,-75694.64844
20.1484375,-75699.60938
20.15625,-75704.53125
20.1640625,-75709.21094
20.171875,-75711.75781
20.1796875,-75712.82031
20.1875,-75713.71875
20.1953125,-75717.09375
20.203125,-75725.79688
20.2109375,-75740.52344
20.21875,-75759.71094
20.2265625,-75779.78125
20.234375,-75795.45313
20.2421875,-75804.04688
20.25,-75804.21875
20.2578125,-75798.71875
20.265625,-75793.0625
20.2734375,-75791.90625
20.28125,-75800.36719
20.2890625,-75818.5
20.296875,-75843.07031
20.3046875,-75869.32031
20.3125,-75891.29688
20.3203125,-75906.92969
20.328125,-75916.39844
20.3359375,-75922.41406
20.34375,-75928.38281
20.3515625,-75936.25781
20.359375,-75946.5
20.3671875,-75958.64844
20.375,-75971.11719
20.3828125,-75984.32031
20.390625,-75997.59375
20.3984375,-76010.78125
20.40625,-76023.64063
20.4140625,-76034.23438
20.421875,-76043.33594
20.4296875,-76051.30469
20.4375,-76059.35156
20.4453125,-76069.50781
20.453125,-76081.42188
20.4609375,-76095.03125
20.46875,-76108.74219
20.4765625,-76121.21875
20.484375,-76132.26563
20.4921875,-76142.1875
20.5,-76152.29688
20.5078125,-76163.83594
20.515625,-76177.07031
20.5234375,-76193.30469
20.53125,-76211.82813
20.5390625,-76232.14844
20.546875,-76253.47656
20.5546875,-76273.10938
20.5625,-76290.45313
20.5703125,-76304.22656
20.578125,-76314.6875
20.5859375,-76324.21094
20.59375,-76334.29688
20.6015625,-76347.11719
20.609375,-76362.00781
20.6171875,-76376.14063
20.625,-76385.77344
20.6328125,-76387.10938
20.640625,-76378.79688
20.6484375,-76362.03125
20.65625,-76338.44531
20.6640625,-76310.96094
20.671875,-76279.40625
20.6796875,-76242.89063
20.6875,-76200.96094
20.6953125,-76153.6875
20.703125,-76105.78906
20.7109375,-76062.03125
20.71875,-76026.14844
20.7265625,-75999.17969
20.734375,-75977.46094
20.7421875,-75956.49219
20.75,-75932.91406
20.7578125,-75907.35156
20.765625,-75884.57031
20.7734375,-75869.83594
20.78125,-75866.28906
20.7890625,-75872.17188
20.796875,-75880.0625
20.8046875,-75882.98438
20.8125,-75874.82813
20.8203125,-75855.16406
20.828125,-75828.6875
20.8359375,-75800.8125
20.84375,-75778.05469
20.8515625,-75762.39844
20.859375,-75752.5
20.8671875,-75745.60156
20.875,-75738.07031
20.8828125,-75728.74219
20.890625,-75718.30469
20.8984375,-75708.78125
20.90625,-75702.52344
20.9140625,-75699.55469
20.921875,-75698.74219
20.9296875,-75697.82813
20.9375,-75694.07031
20.9453125,-75688.53906
20.953125,-75683.07813
20.9609375,-75681.07813
20.96875,-75685.42969
20.9765625,-75694.92188
20.984375,-75707.64844
20.9921875,-75719.22656
21,-75726.33594
21.0078125,-75728.78125
21.015625,-75728.0625
21.0234375,-75727.23438
21.03125,-75727.96094
21.0390625,-75729.59375
21.046875,-75730.20313
21.0546875,-75726.86719
21.0625,-75718.95313
21.0703125,-75708.22656
21.078125,-75697
21.0859375,-75689.57813
21.09375,-75687.27344
21.1015625,-75689.60156
21.109375,-75694.67188
21.1171875,-75698.48438
21.125,-75699.67188
21.1328125,-75697.39844
21.140625,-75692.80469
21.1484375,-75689.09375
21.15625,-75688.71875
21.1640625,-75693.50781
21.171875,-75702.85938
21.1796875,-75713.72656
21.1875,-75722.84375
21.1953125,-75727.03125
21.203125,-75726.67188
21.2109375,-75725.39063
21.21875,-75727.34375
21.2265625,-75737.89063
21.234375,-75757.53906
21.2421875,-75783.10938
21.25,-75809.15625
21.2578125,-75828.66406
21.265625,-75839.29688
21.2734375,-75841.79688
21.28125,-75840.58594
21.2890625,-75841.97656
21.296875,-75850.17969
21.3046875,-75866.82031
21.3125,-75890.10938
21.3203125,-75915.77344
21.328125,-75940.14844
21.3359375,-75960.14844
21.34375,-75975.6875
21.3515625,-75988.64844
21.359375,-76000.26563
21.3671875,-76012.875
21.375,-76025.64844
21.3828125,-76036.89063
21.390625,-76045.67188
21.3984375,-76051.03125
21.40625,-76055.89063
21.4140625,-76063.05469
21.421875,-76074.67188
21.4296875,-76090.60156
21.4375,-76107.5
21.4453125,-76121.23438
21.453125,-76129.03906
21.4609375,-76130.98438
21.46875,-76131.1875
21.4765625,-76133.78125
21.484375,-76142.13281
21.4921875,-76156.44531
21.5,-76172.80469
21.5078125,-76188.64844
21.515625,-76202.28906
21.5234375,-76215.71094
21.53125,-76233.71875
21.5390625,-76258.82813
21.546875,-76291.52344
21.5546875,-76326.78906
21.5625,-76357.39063
21.5703125,-76377.80469
21.578125,-76386.76563
21.5859375,-76388.55469
21.59375,-76390.1875
21.6015625,-76396.02344
21.609375,-76406.64844
21.6171875,-76416.02344
21.625,-76416.6875
21.6328125,-76403.57031
21.640625,-76375.28125
21.6484375,-76337.23438
21.65625,-76295.09375
21.6640625,-76252.96094
21.671875,-76212.14063
21.6796875,-76169.94531
21.6875,-76125.35938
21.6953125,-76078.8125
21.703125,-76033.39063
21.7109375,-75993.22656
21.71875,-75960.21094
21.7265625,-75933.57813
21.734375,-75910.30469
21.7421875,-75886.17969
21.75,-75860.30469
21.7578125,-75832.78125
21.765625,-75806.22656
21.7734375,-75783.35938
21.78125,-75764.10156
21.7890625,-75748.61719
21.796875,-75734.52344
21.8046875,-75719.78125
21.8125,-75704.01563
21.8203125,-75686.96094
21.828125,-75670.75
21.8359375,-75657.13281
21.84375,-75647.45313
21.8515625,-75642.32813
21.859375,-75640.45313
21.8671875,-75639.77344
21.875,-75638.1875
21.8828125,-75633.44531
21.890625,-75626.48438
21.8984375,-75618.05469
21.90625,-75610.3125
21.9140625,-75605.39063
21.921875,-75603
21.9296875,-75603.98438
21.9375,-75607.08594
21.9453125,-75610.875
21.953125,-75614.25781
21.9609375,-75615.05469
21.96875,-75612.46875
21.9765625,-75606.58594
21.984375,-75598.96094
21.9921875,-75592.39844
22,-75588.4375
22.0078125,-75586.79688
22.015625,-75585.33594
22.0234375,-75580.19531
22.03125,-75571.04688
22.0390625,-75559.16406
22.046875,-75548.92969
22.0546875,-75545.24219
22.0625,-75549.125
22.0703125,-75560.33594
22.078125,-75575.14063
22.0859375,-75589.92188
22.09375,-75603.52344
22.1015625,-75615.85156
22.109375,-75628.60938
22.1171875,-75642.89844
22.125,-75658.86719
22.1328125,-75676.4375
22.140625,-75694.42188
22.1484375,-75712.09375
22.15625,-75728.55469
22.1640625,-75741.60156
22.171875,-75751.28125
22.1796875,-75757.07813
22.1875,-75760.13281
22.1953125,-75762.49219
22.203125,-75764.22656
22.2109375,-75766.4375
22.21875,-75768.375
22.2265625,-75769.70313
22.234375,-75771.5625
22.2421875,-75774.625
22.25,-75779.57813
22.2578125,-75785.35938
22.265625,-75789.84375
22.2734375,-75791.875
22.28125,-75791.60156
22.2890625,-75792.04688
22.296875,-75797.01563
22.3046875,-75807.50781
22.3125,-75823.15625
22.3203125,-75839.46875
22.328125,-75852.08594
22.3359375,-75859.75
22.34375,-75863.50781
22.3515625,-75869.03125
22.359375,-75880.28906
22.3671875,-75897.95313
22.375,-75918.95313
22.3828125,-75936.85938
22.390625,-75946.98438
22.3984375,-75948.76563
22.40625,-75946.36719
22.4140625,-75947.28125
22.421875,-75956.69531
22.4296875,-75975.86719
22.4375,-76000.82813
22.4453125,-76023.25781
22.453125,-76037.55469
22.4609375,-76040.4375
22.46875,-76033.84375
22.4765625,-76023.86719
22.484375,-76015.69531
22.4921875,-76014.53906
22.5,-76021
22.5078125,-76032.78125
22.515625,-76046.21875
22.5234375,-76056.91406
22.53125,-76062.49219
22.5390625,-76063.10938
22.546875,-76060.73438
22.5546875,-76059.3125
22.5625,-76061.23438
22.5703125,-76067.8125
22.578125,-76078.32031
22.5859375,-76088.97656
22.59375,-76097.52344
22.6015625,-76100.69531
22.609375,-76096.55469
22.6171875,-76084.83594
22.625,-76064.38281
22.6328125,-76036.1875
22.640625,-76000.70313
22.6484375,-75959.53125
22.65625,-75915.67969
22.6640625,-75872.45313
22.671875,-75833.22656
22.6796875,-75799.89063
22.6875,-75771.45313
22.6953125,-75745.64844
22.703125,-75718.46094
22.7109375,-75688.03125
22.71875,-75655.57813
22.7265625,-75623.74219
22.734375,-75597.96875
22.7421875,-75580.17188
22.75,-75568.875
22.7578125,-75560.02344
22.765625,-75547.41406
22.7734375,-75528.80469
22.78125,-75504.75781
22.7890625,-75479.07813
22.796875,-75456.13281
22.8046875,-75437.63281
22.8125,-75422.5625
22.8203125,-75408.41406
22.828125,-75392.59375
22.8359375,-75376.45313
22.84375,-75362.19531
22.8515625,-75353.26563
22.859375,-75351.57813
22.8671875,-75355.02344
22.875,-75361.52344
22.8828125,-75367.44531
22.890625,-75370.99219
22.8984375,-75373.21875
22.90625,-75374.79688
22.9140625,-75377.71875
22.921875,-75381.67188
22.9296875,-75385.34375
22.9375,-75387.46094
22.9453125,-75387.21875
22.953125,-75385.42969
22.9609375,-75383.89063
22.96875,-75383.23438
22.9765625,-75384.53125
22.984375,-75386.28906
22.9921875,-75387.28906
23,-75387.07813
23.0078125,-75384.79688
23.015625,-75382.75
23.0234375,-75382.35156
23.03125,-75384.9375
23.0390625,-75391.75
23.046875,-75401.64063
23.0546875,-75413.75
23.0625,-75425.84375
23.0703125,-75435.83594
23.078125,-75442.89063
23.0859375,-75447.125
23.09375,-75450.45313
23.1015625,-75455.65625
23.109375,-75463.64063
23.1171875,-75475.10938
23.125,-75487.17188
23.1328125,-75496.82813
23.140625,-75502.42969
23.1484375,-75503.17188
23.15625,-75502.76563
23.1640625,-75504.19531
23.171875,-75509.30469
23.1796875,-75518.01563
23.1875,-75527.07813
23.1953125,-75533.73438
23.203125,-75536.3125
23.2109375,-75535.48438
23.21875,-75533.83594
23.2265625,-75533.9375
23.234375,-75537.71094
23.2421875,-75546.25
23.25,-75559.09375
23.2578125,-75577.13281
23.265625,-75599.125
23.2734375,-75623.15625
23.28125,-75646.30469
23.2890625,-75664.04688
23.296875,-75675.70313
23.3046875,-75682.46875
23.3125,-75688.33594
23.3203125,-75698.23438
23.328125,-75713.25781
23.3359375,-75731.28906
23.34375,-75747.07813
23.3515625,-75756.3125
23.359375,-75758.875
23.3671875,-75758.63281
23.375,-75761.46875
23.3828125,-75771.25
23.390625,-75785.875
23.3984375,-75800.85938
23.40625,-75810.02344
23.4140625,-75811.70313
23.421875,-75810.21094
23.4296875,-75811.75781
23.4375,-75823.59375
23.4453125,-75846.54688
23.453125,-75875.78906
23.4609375,-75903.95313
23.46875,-75923.79688
23.4765625,-75933.49219
23.484375,-75935.83594
23.4921875,-75936.45313
23.5,-75941.17969
23.5078125,-75952.64844
23.515625,-75971.24219
23.5234375,-75995.3125
23.53125,-76021.27344
23.5390625,-76047.23438
23.546875,-76070.02344
23.5546875,-76087.86719
23.5625,-76100.5625
23.5703125,-76107.92188
23.578125,-76112.84375
23.5859375,-76116.58594
23.59375,-76118.82813
23.6015625,-76117.54688
23.609375,-76108.39844
23.6171875,-76088.32813
23.625,-76056.71875
23.6328125,-76016.03125
23.640625,-75971.5625
23.6484375,-75927.5625
23.65625,-75886.84375
23.6640625,-75849.33594
23.671875,-75812.14063
23.6796875,-75774.66406
23.6875,-75736.99219
23.6953125,-75702.35156
23.703125,-75675.3125
23.7109375,-75657.74219
23.71875,-75650.38281
23.7265625,-75649.42969
23.734375,-75649.65625
23.7421875,-75647.22656
23.75,-75640.21875
23.7578125,-75630.33594
23.765625,-75620.78906
23.7734375,-75614.17188
23.78125,-75611.53125
23.7890625,-75610.88281
23.796875,-75609.90625
23.8046875,-75606.99219
23.8125,-75601.16406
23.8203125,-75595.03906
23.828125,-75590.3125
23.8359375,-75588.35938
23.84375,-75589.73438
23.8515625,-75592.29688
23.859375,-75595.67969
23.8671875,-75599.00781
23.875,-75602.64063
23.8828125,-75608.34375
23.890625,-75617.07813
23.8984375,-75629.50781
23.90625,-75644.71875
23.9140625,-75660.30469
23.921875,-75673.57813
23.9296875,-75681.32813
23.9375,-75682.375
23.9453125,-75677.6875
23.953125,-75668.96094
23.9609375,-75660.92188
23.96875,-75656.40625
23.9765625,-75657.17188
23.984375,-75663.28906
23.9921875,-75671.59375
24,-75680.07813
24.0078125,-75685.89063
24.015625,-75688.07813
24.0234375,-75688.17188
24.03125,-75688.30469
24.0390625,-75691.72656
24.046875,-75700.49219
24.0546875,-75714.5
24.0625,-75732.01563
24.0703125,-75749.24219
24.078125,-75763.38281
24.0859375,-75773.625
24.09375,-75780.23438
24.1015625,-75787.10156
24.109375,-75796.25
24.1171875,-75808.63281
24.125,-75823.5
24.1328125,-75837.32031
24.140625,-75848.72656
24.1484375,-75856.85938
24.15625,-75862.95313
24.1640625,-75870.14844
24.171875,-75880.35938
24.1796875,-75894.50781
24.1875,-75911.39844
24.1953125,-75928.47656
24.203125,-75944.20313
24.2109375,-75957.71094
24.21875,-75970.42188
24.2265625,-75984.6875
24.234375,-76000.60156
24.2421875,-76018.33594
24.25,-76035.02344
24.2578125,-76048.125
24.265625,-76057.39063
24.2734375,-76063.71875
24.28125,-76071.75
24.2890625,-76084.875
24.296875,-76104.53125
24.3046875,-76129.58594
24.3125,-76155.92188
24.3203125,-76179.54688
24.328125,-76198.02344
24.3359375,-76211.16406
24.34375,-76221.30469
24.3515625,-76230.125
24.359375,-76238.61719
24.3671875,-76246.02344
24.375,-76249.35938
24.3828125,-76248.59375
24.390625,-76244.36719
24.3984375,-76240.04688
24.40625,-76240.46094
24.4140625,-76247.25
24.421875,-76260.57031
24.4296875,-76276.28125
24.4375,-76288.8125
24.4453125,-76294.5
24.453125,-76292.29688
24.4609375,-76285.21875
24.46875,-76278.33594
24.4765625,-76275.98438
24.484375,-76280.97656
24.4921875,-76292.10938
24.5,-76306.91406
24.5078125,-76321.91406
24.515625,-76333.94531
24.5234375,-76343.22656
24.53125,-76349.46875
24.5390625,-76352.57813
24.546875,-76352.14844
24.5546875,-76345.17188
24.5625,-76330.41406
24.5703125,-76306.84375
24.578125,-76275.64844
24.5859375,-76240.41406
24.59375,-76204.30469
24.6015625,-76169.20313
24.609375,-76134.45313
24.6171875,-76097.125
24.625,-76055.19531
24.6328125,-76007.95313
24.640625,-75958.53125
24.6484375,-75911.97656
24.65625,-75871.34375
24.6640625,-75838.85938
24.671875,-75811.89063
24.6796875,-75786.44531
24.6875,-75760.25
24.6953125,-75732.39844
24.703125,-75706.27344
24.7109375,-75684.78125
24.71875,-75669.21094
24.7265625,-75658
24.734375,-75646.94531
24.7421875,-75632.09375
24.75,-75611.71094
24.7578125,-75586.46094
24.765625,-75559.85938
24.7734375,-75534.3125
24.78125,-75511.60156
24.7890625,-75491.9375
24.796875,-75473.38281
24.8046875,-75456.64063
24.8125,-75442.14844
24.8203125,-75431.5
24.828125,-75426.82813
24.8359375,-75427.32031
24.84375,-75431.97656
24.8515625,-75437.40625
24.859375,-75440.36719
24.8671875,-75439.20313
24.875,-75433.75781
24.8828125,-75425.78906
24.890625,-75417.67188
24.8984375,-75410.1875
24.90625,-75404.34375
24.9140625,-75398.79688
24.921875,-75393.00781
24.9296875,-75387.46875
24.9375,-75382.09375
24.9453125,-75378.91406
24.953125,-75377.79688
24.9609375,-75377.67188
24.96875,-75377.91406
24.9765625,-75377.19531
24.984375,-75377.39063
24.9921875,-75380.625
25,-75388.85938
25.0078125,-75402.39844
25.015625,-75418.57031
25.0234375,-75433.53906
25.03125,-75444.22656
25.0390625,-75449.15625
25.046875,-75451.375
25.0546875,-75454.17188
25.0625,-75461.21875
25.0703125,-75474.39844
25.078125,-75491.625
25.0859375,-75511.25
25.09375,-75529.85156
25.1015625,-75545.07031
25.109375,-75556.6875
25.1171875,-75564.36719
25.125,-75570.24219
25.1328125,-75576.07813
25.140625,-75583.72656
25.1484375,-75594.71875
25.15625,-75608.82031
25.1640625,-75624.74219
25.171875,-75640.35938
25.1796875,-75652.45313
25.1875,-75660.47656
25.1953125,-75664.33594
25.203125,-75666.66406
25.2109375,-75671.77344
25.21875,-75682.14844
25.2265625,-75700.53125
25.234375,-75725.40625
25.2421875,-75753.1875
25.25,-75780.26563
25.2578125,-75803.16406
25.265625,-75821.55469
25.2734375,-75836.28906
25.28125,-75848.54688
25.2890625,-75858.70313
25.296875,-75865.16406
25.3046875,-75866.84375
25.3125,-75864.15625
25.3203125,-75858.55469
25.328125,-75854.85156
25.3359375,-75855.875
25.34375,-75863.1875
25.3515625,-75876.0625
25.359375,-75890.53125
25.3671875,-75904.53906
25.375,-75916.15625
25.3828125,-75925.77344
25.390625,-75936.21875
25.3984375,-75950.01563
25.40625,-75969.25
25.4140625,-75993.125
25.421875,-76017.86719
25.4296875,-76038.41406
25.4375,-76049.65625
25.4453125,-76050.45313
25.453125,-76044.25781
25.4609375,-76036.83594
25.46875,-76036.07813
25.4765625,-76045.34375
25.484375,-76063.71094
25.4921875,-76087.10938
25.5,-76109.0625
25.5078125,-76127.47656
25.515625,-76141.07031
25.5234375,-76149.78125
25.53125,-76152.97656
25.5390625,-76147.13281
25.546875,-76128.92188
25.5546875,-76097.125
25.5625,-76054.5
25.5703125,-76007.64063
25.578125,-75962.38281
25.5859375,-75922.14063
25.59375,-75886.39063
25.6015625,-75851.15625
25.609375,-75815.39844
25.6171875,-75779.49219
25.625,-75746.69531
25.6328125,-75720.47656
25.640625,-75699.94531
25.6484375,-75683.0625
25.65625,-75665.47656
25.6640625,-75644.67188
25.671875,-75622.32813
25.6796875,-75601.74219
25.6875,-75586.67969
25.6953125,-75578.1875
25.703125,-75573.51563
25.7109375,-75568.63281
25.71875,-75559.01563
25.7265625,-75543.35156
25.734375,-75523.35156
25.7421875,-75501.27344
25.75,-75481.57031
25.7578125,-75466.28125
25.765625,-75456.66406
25.7734375,-75453.97656
25.78125,-75457.49219
25.7890625,-75467.42969
25.796875,-75481.22656
25.8046875,-75494.30469
25.8125,-75501.66406
25.8203125,-75498.50781
25.828125,-75483.88281
25.8359375,-75461.04688
25.84375,-75435.96875
25.8515625,-75415.48438
25.859375,-75402.52344
25.8671875,-75396.48438
25.875,-75394.09375
25.8828125,-75390.69531
25.890625,-75386.08594
25.8984375,-75381.21875
25.90625,-75378.61719
25.9140625,-75380.14063
25.921875,-75383.67188
25.9296875,-75387.29688
25.9375,-75388.42969
25.9453125,-75387.17188
25.953125,-75386.45313
25.9609375,-75389.49219
25.96875,-75398.30469
25.9765625,-75412
25.984375,-75426.88281
25.9921875,-75439.89063
26,-75448.75781
26.0078125,-75454.82031
26.015625,-75461.01563
26.0234375,-75468.6875
26.03125,-75479.26563
26.0390625,-75490.60156
26.046875,-75500.02344
26.0546875,-75506.625
26.0625,-75509.92969
26.0703125,-75512.58594
26.078125,-75516.19531
26.0859375,-75521.04688
26.09375,-75525.77344
26.1015625,-75527.63281
26.109375,-75524.98438
26.1171875,-75518.50781
26.125,-75510.60938
26.1328125,-75506.44531
26.140625,-75509.39063
26.1484375,-75521.15625
26.15625,-75540.64063
26.1640625,-75562.78125
26.171875,-75583.86719
26.1796875,-75600.10156
26.1875,-75610.51563
26.1953125,-75617.39063
26.203125,-75622.54688
26.2109375,-75628.59375
26.21875,-75635.46094
26.2265625,-75642.01563
26.234375,-75647.57813
26.2421875,-75652.63281
26.25,-75659.73438
26.2578125,-75672.21875
26.265625,-75691.26563
26.2734375,-75717.13281
26.28125,-75746.21094
26.2890625,-75774.39844
26.296875,-75798.52344
26.3046875,-75815.66406
26.3125,-75827.02344
26.3203125,-75833.52344
26.328125,-75836.75
26.3359375,-75839.13281
26.34375,-75841.86719
26.3515625,-75848.14063
26.359375,-75860.67969
26.3671875,-75881.88281
26.375,-75912.6875
26.3828125,-75950.625
26.390625,-75990.60156
26.3984375,-76026.54688
26.40625,-76052.79688
26.4140625,-76069.11719
26.421875,-76078.25
26.4296875,-76086.58594
26.4375,-76100.64844
26.4453125,-76122.1875
26.453125,-76150.39063
26.4609375,-76179.5
26.46875,-76203.07031
26.4765625,-76217.29688
26.484375,-76220.85938
26.4921875,-76216.35156
26.5,-76206.99219
26.5078125,-76195.4375
26.515625,-76182.36719
26.5234375,-76166.17188
26.53125,-76144.78125
26.5390625,-76116.8125
26.546875,-76081.32813
26.5546875,-76040.75781
26.5625,-75997.32031
26.5703125,-75954.42188
26.578125,-75915.24219
26.5859375,-75880.24219
26.59375,-75850.55469
26.6015625,-75825.00781
26.609375,-75802.45313
26.6171875,-75782.78125
26.625,-75765.25
26.6328125,-75749.76563
26.640625,-75734.89063
26.6484375,-75718.47656
26.65625,-75698.84375
26.6640625,-75675.4375
26.671875,-75650.28906
26.6796875,-75627.28906
26.6875,-75609.09375
26.6953125,-75597.95313
26.703125,-75591.85156
26.7109375,-75587.46094
26.71875,-75582.08594
26.7265625,-75573.66406
26.734375,-75564.58594
26.7421875,-75557.25781
26.75,-75553.6875
26.7578125,-75554.67188
26.765625,-75558.21094
26.7734375,-75562.48438
26.78125,-75565.98438
26.7890625,-75568.22656
26.796875,-75570.28125
26.8046875,-75572.69531
26.8125,-75576.40625
26.8203125,-75582.16406
26.828125,-75589.28906
26.8359375,-75598.66406
26.84375,-75609.23438
26.8515625,-75619.875
26.859375,-75629.6875
26.8671875,-75636.57813
26.875,-75641.42969
26.8828125,-75644.98438
26.890625,-75648.60938
26.8984375,-75654.32813
26.90625,-75662.48438
26.9140625,-75673
26.921875,-75684.71875
26.9296875,-75695.66406
26.9375,-75704.46094
26.9453125,-75709.70313
26.953125,-75712.15625
26.9609375,-75714.48438
26.96875,-75719.28906
26.9765625,-75730.53125
26.984375,-75748.29688
26.9921875,-75769.95313
27,-75791.16406
27.0078125,-75806.02344
27.015625,-75813.30469
27.0234375,-75814.05469
27.03125,-75812.19531
27.0390625,-75812.72656
27.046875,-75818.14844
27.0546875,-75829.11719
27.0625,-75844.10156
27.0703125,-75860.63281
27.078125,-75876.98438
27.0859375,-75891.125
27.09375,-75902.25781
27.1015625,-75910.4375
27.109375,-75915.39063
27.1171875,-75919.80469
27.125,-75925.14844
27.1328125,-75932.55469
27.140625,-75942.07031
27.1484375,-75950.85156
27.15625,-75957.625
27.1640625,-75961.13281
27.171875,-75961.96094
27.1796875,-75962.97656
27.1875,-75966.28125
27.1953125,-75973.38281
27.203125,-75983.9375
27.2109375,-75996.14844
27.21875,-76008.91406
27.2265625,-76021.03906
27.234375,-76033.00781
27.2421875,-76045.99219
27.25,-76059.375
27.2578125,-76073.5625
27.265625,-76086.52344
27.2734375,-76096.60938
27.28125,-76104.0625
27.2890625,-76109.53906
27.296875,-76117.25
27.3046875,-76130.21094
27.3125,-76149.72656
27.3203125,-76174.28125
27.328125,-76199.47656
27.3359375,-76221.125
27.34375,-76237.45313
27.3515625,-76249.65625
27.359375,-76261.84375
27.3671875,-76276.32813
27.375,-76292.875
27.3828125,-76308.33594
27.390625,-76317.54688
27.3984375,-76320.11719
27.40625,-76318.57813
27.4140625,-76318.82031
27.421875,-76326.92188
27.4296875,-76343.21094
27.4375,-76364.28906
27.4453125,-76381.875
27.453125,-76387.73438
27.4609375,-76376.875
27.46875,-76348.24219
27.4765625,-76304.92188
27.484375,-76252.1875
27.4921875,-76194.83594
27.5,-76138.11719
27.5078125,-76083.71875
27.515625,-76032.42969
27.5234375,-75983.50781
27.53125,-75934.25781
27.5390625,-75885.03125
27.546875,-75836.44531
27.5546875,-75790.67188
27.5625,-75750.5625
27.5703125,-75715.88281
27.578125,-75685.79688
27.5859375,-75657.32031
27.59375,-75628
27.6015625,-75597.10156
27.609375,-75564.95313
27.6171875,-75532.66406
27.625,-75501.50781
27.6328125,-75471.53125
27.640625,-75444.5
27.6484375,-75420.85938
27.65625,-75401.03906
27.6640625,-75383.96094
27.671875,-75364.95313
27.6796875,-75340.88281
27.6875,-75309.20313
27.6953125,-75271.73438
27.703125,-75235
27.7109375,-75205.41406
27.71875,-75188.22656
27.7265625,-75182.32031
27.734375,-75181.92969
27.7421875,-75179.73438
27.75,-75170.60156
27.7578125,-75155.15625
27.765625,-75139.09375
27.7734375,-75128.60156
27.78125,-75128.76563
27.7890625,-75137.67188
27.796875,-75149.30469
27.8046875,-75156.55469
27.8125,-75153.78906
27.8203125,-75142.78906
27.828125,-75128.83594
27.8359375,-75118.57813
27.84375,-75116.57031
27.8515625,-75121.27344
27.859375,-75127.77344
27.8671875,-75129.88281
27.875,-75124.50781
27.8828125,-75113.58594
27.890625,-75102.03125
27.8984375,-75095.10938
27.90625,-75095.14844
27.9140625,-75099.26563
27.921875,-75104.17188
27.9296875,-75106.125
27.9375,-75105.40625
27.9453125,-75105.77344
27.953125,-75109.875
27.9609375,-75119.73438
27.96875,-75132.1875
27.9765625,-75142.05469
27.984375,-75146.10938
27.9921875,-75144.22656
28,-75141.07813
28.0078125,-75142.35156
28.015625,-75151.16406
28.0234375,-75166.55469
28.03125,-75183.09375
28.0390625,-75195.46875
28.046875,-75201.22656
28.0546875,-75200.89844
28.0625,-75199.73438
28.0703125,-75201.34375
28.078125,-75207.50781
28.0859375,-75217.40625
28.09375,-75226.86719
28.1015625,-75233.875
28.109375,-75236.66406
28.1171875,-75235.41406
28.125,-75232.10938
28.1328125,-75228.40625
28.140625,-75226.54688
28.1484375,-75228.32031
28.15625,-75234.83594
28.1640625,-75246.75781
28.171875,-75262.42188
28.1796875,-75279.32031
28.1875,-75294.375
28.1953125,-75304.07031
28.203125,-75309.20313
28.2109375,-75311.65625
28.21875,-75315.5
28.2265625,-75324.8125
28.234375,-75339.625
28.2421875,-75358.40625
28.25,-75376.1875
28.2578125,-75388.32813
28.265625,-75393.60156
28.2734375,-75393.74219
28.28125,-75393.32031
28.2890625,-75396.78125
28.296875,-75405.80469
28.3046875,-75419.67969
28.3125,-75434.98438
28.3203125,-75449.36719
28.328125,-75462.26563
28.3359375,-75473.60938
28.34375,-75485.85938
28.3515625,-75499.24219
28.359375,-75513.39063
28.3671875,-75528.00781
28.375,-75541.6875
28.3828125,-75555.60938
28.390625,-75570.21094
28.3984375,-75585.77344
28.40625,-75602.46875
28.4140625,-75618.82813
28.421875,-75633.17969
28.4296875,-75643.45313
28.4375,-75647.125
28.4453125,-75642.67188
28.453125,-75628.32813
28.4609375,-75604.22656
28.46875,-75571.90625
28.4765625,-75532.60156
28.484375,-75489.89844
28.4921875,-75445.77344
28.5,-75402.02344
28.5078125,-75361.07813
28.515625,-75323.21875
28.5234375,-75289.89063
28.53125,-75260.40625
28.5390625,-75233.19531
28.546875,-75206.58594
28.5546875,-75179.03125
28.5625,-75150.75
28.5703125,-75123.32031
28.578125,-75098.09375
28.5859375,-75076.22656
28.59375,-75056.05469
28.6015625,-75035.4375
28.609375,-75012.625
28.6171875,-74986.10938
28.625,-74958.28906
28.6328125,-74930.92188
28.640625,-74905.4375
28.6484375,-74882.42188
28.65625,-74860.03906
28.6640625,-74838.71094
28.671875,-74819.80469
28.6796875,-74806.47656
28.6875,-74801.88281
28.6953125,-74806.07031
28.703125,-74815.61719
28.7109375,-74824.82813
28.71875,-74827.97656
28.7265625,-74824.44531
28.734375,-74816.65625
28.7421875,-74810.35938
28.75,-74810.46875
28.7578125,-74816.91406
28.765625,-74827.89063
28.7734375,-74838.54688
28.78125,-74845.42969
28.7890625,-74848.60156
28.796875,-74849.0625
28.8046875,-74849.625
28.8125,-74850.78906
28.8203125,-74851.5625
28.828125,-74850.35938
28.8359375,-74846
28.84375,-74839.3125
28.8515625,-74832.72656
28.859375,-74828.22656
28.8671875,-74828.60156
28.875,-74833.75
28.8828125,-74842.75
28.890625,-74854.10156
28.8984375,-74864.52344
28.90625,-74873.375
28.9140625,-74879.80469
28.921875,-74884.3125
28.9296875,-74889.10938
28.9375,-74895.42188
28.9453125,-74904.67969
28.953125,-74916.51563
28.9609375,-74929.57813
28.96875,-74942.47656
28.9765625,-74954.0625
28.984375,-74964.54688
28.9921875,-74975.1875
29,-74986.04688
29.0078125,-74997.8125
29.015625,-75008.83594
29.0234375,-75017.85938
29.03125,-75024.74219
29.0390625,-75029.34375
29.046875,-75034.85938
29.0546875,-75043.21094
29.0625,-75055.46875
29.0703125,-75071.69531
29.078125,-75089.60156
29.0859375,-75107.42188
29.09375,-75123.72656
29.1015625,-75138.32031
29.109375,-75152.32813
29.1171875,-75166.46875
29.125,-75180.89063
29.1328125,-75194.83594
29.140625,-75205.69531
29.1484375,-75213.04688
29.15625,-75216.47656
29.1640625,-75218.24219
29.171875,-75222.19531
29.1796875,-75230.03906
29.1875,-75243.33594
29.1953125,-75259.49219
29.203125,-75274.35938
29.2109375,-75285.32031
29.21875,-75291.42969
29.2265625,-75295.71094
29.234375,-75302.35938
29.2421875,-75314.46875
29.25,-75332.64063
29.2578125,-75353.74219
29.265625,-75374.0625
29.2734375,-75390.97656
29.28125,-75403.00781
29.2890625,-75412.48438
29.296875,-75420.85938
29.3046875,-75429.32031
29.3125,-75438.47656
29.3203125,-75446.98438
29.328125,-75455.85938
29.3359375,-75465.54688
29.34375,-75476.77344
29.3515625,-75490.3125
29.359375,-75504.97656
29.3671875,-75519.47656
29.375,-75532.25
29.3828125,-75542.10156
29.390625,-75548.79688
29.3984375,-75551.24219
29.40625,-75548.27344
29.4140625,-75538.24219
29.421875,-75518.42969
29.4296875,-75489.40625
29.4375,-75452.1875
29.4453125,-75409.875
29.453125,-75366.25
29.4609375,-75322.22656
29.46875,-75278.67188
29.4765625,-75233.70313
29.484375,-75185.64844
29.4921875,-75135.33594
29.5,-75085.46094
29.5078125,-75038.96875
29.515625,-74999.4375
29.5234375,-74966.99219
29.53125,-74939.46875
29.5390625,-74912.17969
29.546875,-74881.82031
29.5546875,-74847.95313
29.5625,-74811.82031
29.5703125,-74778.25
29.578125,-74749.89844
29.5859375,-74727.30469
29.59375,-74709.17188
29.6015625,-74691.36719
29.609375,-74671.94531
29.6171875,-74649.36719
29.625,-74623.9375
29.6328125,-74597.24219
29.640625,-74570.78906
29.6484375,-74546.58594
29.65625,-74526.82031
29.6640625,-74513.03906
29.671875,-74506.85938
29.6796875,-74507.25781
29.6875,-74512.25
29.6953125,-74519.14844
29.703125,-74524.30469
29.7109375,-74527.64063
29.71875,-74529.14844
29.7265625,-74530.07031
29.734375,-74531.97656
29.7421875,-74533.86719
29.75,-74535.5
29.7578125,-74535.15625
29.765625,-74532.05469
29.7734375,-74526.75
29.78125,-74520.39844
29.7890625,-74514.74219
29.796875,-74511.0625
29.8046875,-74508.3125
29.8125,-74505.40625
29.8203125,-74499.21875
29.828125,-74488.30469
29.8359375,-74473.58594
29.84375,-74457.36719
29.8515625,-74445.67969
29.859375,-74442.67969
29.8671875,-74450.03906
29.875,-74466.55469
29.8828125,-74486.78906
29.890625,-74506.47656
29.8984375,-74522.55469
29.90625,-74535.40625
29.9140625,-74548.34375
29.921875,-74564.88281
29.9296875,-74587.0625
29.9375,-74614.21094
29.9453125,-74642.14844
29.953125,-74667.25
29.9609375,-74685.59375
29.96875,-74696.44531
29.9765625,-74702.07813
29.984375,-74705.07031
29.9921875,-74710.19531
30,-74719.48438
30.0078125,-74732.9375
30.015625,-74749.59375
30.0234375,-74766.3125
30.03125,-74781.76563
30.0390625,-74794.97656
30.046875,-74806.19531
30.0546875,-74816.55469
30.0625,-74826.80469
30.0703125,-74837.71094
30.078125,-74850.15625
30.0859375,-74864.05469
30.09375,-74880.83594
30.1015625,-74899.90625
30.109375,-74920.375
30.1171875,-74940.55469
30.125,-74956.74219
30.1328125,-74967.67188
30.140625,-74972.17969
30.1484375,-74971.03125
30.15625,-74967.3125
30.1640625,-74963.95313
30.171875,-74964.60156
30.1796875,-74971.25
30.1875,-74984.19531
30.1953125,-75002.10156
30.203125,-75021.61719
30.2109375,-75039.16406
30.21875,-75052.39063
30.2265625,-75059.8125
30.234375,-75064.27344
30.2421875,-75068.71094
30.25,-75076.625
30.2578125,-75089.65625
30.265625,-75105.03906
30.2734375,-75119.625
30.28125,-75128.78125
30.2890625,-75130.20313
30.296875,-75125.85938
30.3046875,-75119.78125
30.3125,-75117.51563
30.3203125,-75122.4375
30.328125,-75134.25
30.3359375,-75149.71094
30.34375,-75163.25781
30.3515625,-75170.71094
30.359375,-75170.59375
30.3671875,-75163.07813
30.375,-75151.77344
30.3828125,-75138.53125
30.390625,-75124.07813
30.3984375,-75107.70313
30.40625,-75086.21875
30.4140625,-75058.73438
30.421875,-75024.58594
30.4296875,-74985.14063
30.4375,-74943.45313
30.4453125,-74901.95313
30.453125,-74862.65625
30.4609375,-74826.07031
30.46875,-74791.49219
30.4765625,-74758.36719
30.484375,-74725.66406
30.4921875,-74693.41406
30.5,-74662.24219
30.5078125,-74631.8125
30.515625,-74603.20313
30.5234375,-74575.59375
30.53125,-74548.14844
30.5390625,-74520.28906
30.546875,-74490.15625
30.5546875,-74458.6875
30.5625,-74426.76563
30.5703125,-74396.33594
30.578125,-74370.03906
30.5859375,-74348.46094
30.59375,-74330.69531
30.6015625,-74313.96094
30.609375,-74295.08594
30.6171875,-74273.14063
30.625,-74248.75781
30.6328125,-74225.13281
30.640625,-74205.34375
30.6484375,-74189.25
30.65625,-74176.33594
30.6640625,-74163.46094
30.671875,-74148.96094
30.6796875,-74134.01563
30.6875,-74120.32031
30.6953125,-74111.6875
30.703125,-74109.23438
30.7109375,-74111.90625
30.71875,-74117.67969
30.7265625,-74123.44531
30.734375,-74127.41406
30.7421875,-74128.91406
30.75,-74128.04688
30.7578125,-74126.59375
30.765625,-74125.96875
30.7734375,-74128.24219
30.78125,-74134.82031
30.7890625,-74143.83594
30.796875,-74153.74219
30.8046875,-74160.77344
30.8125,-74162.71094
30.8203125,-74160.66406
30.828125,-74156.55469
30.8359375,-74154.4375
30.84375,-74155.625
30.8515625,-74158.89063
30.859375,-74161.83594
30.8671875,-74162.17969
30.875,-74160.42188
30.8828125,-74159.28906
30.890625,-74161.50781
30.8984375,-74168.88281
30.90625,-74179.67969
30.9140625,-74191.08594
30.921875,-74200.70313
30.9296875,-74206.375
30.9375,-74209.78906
30.9453125,-74212.1875
30.953125,-74215.13281
30.9609375,-74220.39844
30.96875,-74227.71094
30.9765625,-74237.89063
30.984375,-74249.78125
30.9921875,-74261.51563
31,-74270.96875
31.0078125,-74276.375
31.015625,-74278.60156
31.0234375,-74281.1875
31.03125,-74287.86719
31.0390625,-74302.22656
31.046875,-74322.5625
31.0546875,-74344.1875
31.0625,-74361.49219
31.0703125,-74370.29688
31.078125,-74373.80469
31.0859375,-74378.3125
31.09375,-74390.94531
31.1015625,-74415.51563
31.109375,-74447.86719
31.1171875,-74480.50781
31.125,-74505.00781
31.1328125,-74518
31.140625,-74523.03125
31.1484375,-74527.35938
31.15625,-74537.59375
31.1640625,-74555.45313
31.171875,-74576
31.1796875,-74593.39844
31.1875,-74602.60156
31.1953125,-74604.46094
31.203125,-74604.83594
31.2109375,-74609.35938
31.21875,-74623.11719
31.2265625,-74645.02344
31.234375,-74670.32031
31.2421875,-74693.65625
31.25,-74709.85156
31.2578125,-74718.40625
31.265625,-74721.15625
31.2734375,-74722.09375
31.28125,-74725.60156
31.2890625,-74734.0625
31.296875,-74747.39063
31.3046875,-74762.8125
31.3125,-74774.72656
31.3203125,-74779.49219
31.328125,-74774.42969
31.3359375,-74760.86719
31.34375,-74742.65625
31.3515625,-74722.28906
31.359375,-74701.99219
31.3671875,-74679.65625
31.375,-74651.70313
31.3828125,-74616.17969
31.390625,-74573.32813
31.3984375,-74527.71094
31.40625,-74485.02344
31.4140625,-74449.33594
31.421875,-74421.1875
31.4296875,-74396.38281
31.4375,-74369.73438
31.4453125,-74338.03125
31.453125,-74301.58594
31.4609375,-74266.65625
31.46875,-74239.04688
31.4765625,-74221.80469
31.484375,-74212.4375
31.4921875,-74202.02344
31.5,-74183.05469
31.5078125,-74151.55469
31.515625,-74110.63281
31.5234375,-74069.3125
31.53125,-74035.55469
31.5390625,-74012.85156
31.546875,-73997.70313
31.5546875,-73982.85156
31.5625,-73963.27344
31.5703125,-73938.78125
31.578125,-73915.41406
31.5859375,-73900.70313
31.59375,-73897.53906
31.6015625,-73904.57813
31.609375,-73914.29688
31.6171875,-73919.08594
31.625,-73915.32031
31.6328125,-73902.92969
31.640625,-73887.42188
31.6484375,-73873.77344
31.65625,-73865.28906
31.6640625,-73863.14063
31.671875,-73865.57031
31.6796875,-73870.55469
31.6875,-73876.25781
31.6953125,-73881.35938
31.703125,-73886.24219
31.7109375,-73891.07813
31.71875,-73896.96875
31.7265625,-73904.67188
31.734375,-73912.73438
31.7421875,-73920.50781
31.75,-73925.69531
31.7578125,-73927.49219
31.765625,-73927.53125
31.7734375,-73927.53906
31.78125,-73931.28125
31.7890625,-73939.74219
31.796875,-73951.07031
31.8046875,-73962.13281
31.8125,-73969.10156
31.8203125,-73971.1875
31.828125,-73971.03906
31.8359375,-73973.32031
31.84375,-73982.79688
31.8515625,-73999.92969
31.859375,-74021.48438
31.8671875,-74041.92188
31.875,-74055.51563
31.8828125,-74062.64844
31.890625,-74066.94531
31.8984375,-74074.44531
31.90625,-74090.02344
31.9140625,-74112.30469
31.921875,-74137.10156
31.9296875,-74157.625
31.9375,-74169.61719
31.9453125,-74174.125
31.953125,-74175.51563
31.9609375,-74179.60938
31.96875,-74190.07813
31.9765625,-74206.74219
31.984375,-74227.60156
31.9921875,-74248.96094
32,-74268.85938
32.0078125,-74286.99219
32.015625,-74302.35938
32.0234375,-74316.19531
32.03125,-74328.55469
32.0390625,-74340.26563
32.046875,-74353.67188
32.0546875,-74369.85156
32.0625,-74390.71094
32.0703125,-74415.4375
32.078125,-74441.77344
32.0859375,-74466.96094
32.09375,-74488.02344
32.1015625,-74503.40625
32.109375,-74513.02344
32.1171875,-74517.42969
32.125,-74519.94531
32.1328125,-74523.63281
32.140625,-74532.375
32.1484375,-74548.77344
32.15625,-74570.92969
32.1640625,-74595.79688
32.171875,-74617.375
32.1796875,-74631.55469
32.1875,-74639.09375
32.1953125,-74643.5625
32.203125,-74651.71875
32.2109375,-74667.0625
32.21875,-74688.60938
32.2265625,-74711.49219
32.234375,-74729.80469
32.2421875,-74741.10156
32.25,-74747.94531
32.2578125,-74755.30469
32.265625,-74769.125
32.2734375,-74790.13281
32.28125,-74814.80469
32.2890625,-74836.71875
32.296875,-74847.78906
32.3046875,-74844.48438
32.3125,-74825.51563
32.3203125,-74793.21094
32.328125,-74752.55469
32.3359375,-74707.97656
32.34375,-74664.35156
32.3515625,-74623.76563
32.359375,-74585.91406
32.3671875,-74548.89844
32.375,-74510.13281
32.3828125,-74468.79688
32.390625,-74426.53906
32.3984375,-74385.5
32.40625,-74348.67969
32.4140625,-74315.30469
32.421875,-74282.99219
32.4296875,-74249.20313
32.4375,-74211.86719
32.4453125,-74173.96875
32.453125,-74138.78906
32.4609375,-74108.97656
32.46875,-74085.03125
32.4765625,-74063.64844
32.484375,-74041.8125
32.4921875,-74017.78906
32.5,-73993.01563
32.5078125,-73969.45313
32.515625,-73949.03906
32.5234375,-73931.58594
32.53125,-73915.10156
32.5390625,-73896.50781
32.546875,-73876.44531
32.5546875,-73856.41406
32.5625,-73839.59375
32.5703125,-73828.64063
32.578125,-73822.50781
32.5859375,-73820.04688
32.59375,-73817.89844
32.6015625,-73813.40625
32.609375,-73805.92969
32.6171875,-73795.42969
32.625,-73783.71094
32.6328125,-73772.88281
32.640625,-73764.95313
32.6484375,-73761.72656
32.65625,-73762.875
32.6640625,-73767.20313
32.671875,-73772.60938
32.6796875,-73775.92969
32.6875,-73777.19531
32.6953125,-73776.46875
32.703125,-73775.46094
32.7109375,-73776.44531
32.71875,-73779.25781
32.7265625,-73784.51563
32.734375,-73790.90625
32.7421875,-73797.17969
32.75,-73803.35938
32.7578125,-73809.27344
32.765625,-73815.97656
32.7734375,-73824.42969
32.78125,-73835.16406
32.7890625,-73848.72656
32.796875,-73864.16406
32.8046875,-73880.47656
32.8125,-73896.36719
32.8203125,-73909.51563
32.828125,-73920.07031
32.8359375,-73927.39844
32.84375,-73931.77344
32.8515625,-73933.89844
32.859375,-73933.02344
32.8671875,-73930.74219
32.875,-73928.53906
32.8828125,-73929.34375
32.890625,-73937.19531
32.8984375,-73953.89844
32.90625,-73978.70313
32.9140625,-74007.07031
32.921875,-74032.21094
32.9296875,-74048.86719
32.9375,-74054.88281
32.9453125,-74053.72656
32.953125,-74052.26563
32.9609375,-74056.125
32.96875,-74069.125
32.9765625,-74088.625
32.984375,-74108.9375
32.9921875,-74124.74219
33,-74132.42188
33.0078125,-74134.8125
33.015625,-74136.52344
33.0234375,-74142.22656
33.03125,-74154.60156
33.0390625,-74171.89063
33.046875,-74190.875
33.0546875,-74208.79688
33.0625,-74225.03906
33.0703125,-74241.90625
33.078125,-74261.08594
33.0859375,-74283.00781
33.09375,-74305.46875
33.1015625,-74323.60156
33.109375,-74335.69531
33.1171875,-74341.88281
33.125,-74346.08594
33.1328125,-74353.98438
33.140625,-74368.03906
33.1484375,-74388.89844
33.15625,-74412.90625
33.1640625,-74435.49219
33.171875,-74454.40625
33.1796875,-74469.60938
33.1875,-74483.5625
33.1953125,-74498.82031
33.203125,-74516.0625
33.2109375,-74534.55469
33.21875,-74551.57031
33.2265625,-74565.42188
33.234375,-74576.10156
33.2421875,-74583.84375
33.25,-74591.48438
33.2578125,-74599.83594
33.265625,-74608.57031
33.2734375,-74616.09375
33.28125,-74617.90625
33.2890625,-74611.07813
33.296875,-74592.71094
33.3046875,-74562.3125
33.3125,-74522.71094
33.3203125,-74477.90625
33.328125,-74432.48438
33.3359375,-74389.46875
33.34375,-74349.1875
33.3515625,-74310.76563
33.359375,-74271.75
33.3671875,-74231.07031
33.375,-74189.09375
33.3828125,-74146.00781
33.390625,-74104.42969
33.3984375,-74065.35938
33.40625,-74029.70313
33.4140625,-73998.6875
33.421875,-73971.70313
33.4296875,-73949.47656
33.4375,-73931.02344
33.4453125,-73914.85156
33.453125,-73899.23438
33.4609375,-73881.90625
33.46875,-73861.58594
33.4765625,-73838.41406
33.484375,-73813.71094
33.4921875,-73790.72656
33.5,-73771.625
33.5078125,-73757.69531
33.515625,-73747.65625
33.5234375,-73737.125
33.53125,-73724.09375
33.5390625,-73707.79688
33.546875,-73691.53906
33.5546875,-73681.64063
33.5625,-73681.79688
33.5703125,-73693.0625
33.578125,-73710.02344
33.5859375,-73724.35938
33.59375,-73729.25781
33.6015625,-73722.64063
33.609375,-73708.8125
33.6171875,-73695.55469
33.625,-73689.13281
33.6328125,-73691.96094
33.640625,-73700.13281
33.6484375,-73707.69531
33.65625,-73710.24219
33.6640625,-73706.07031
33.671875,-73699.76563
33.6796875,-73696.20313
33.6875,-73699.11719
33.6953125,-73709.39844
33.703125,-73723.04688
33.7109375,-73736.05469
33.71875,-73744.33594
33.7265625,-73746.32031
33.734375,-73743.36719
33.7421875,-73738.10156
33.75,-73733.86719
33.7578125,-73733.25781
33.765625,-73736.70313
33.7734375,-73744.53125
33.78125,-73754.53125
33.7890625,-73764.875
33.796875,-73774.11719
33.8046875,-73780.50781
33.8125,-73785.50781
33.8203125,-73790.46094
33.828125,-73797.44531
33.8359375,-73808.89844
33.84375,-73824.47656
33.8515625,-73843.66406
33.859375,-73863.61719
33.8671875,-73881.48438
33.875,-73895.85156
33.8828125,-73906.94531
33.890625,-73917.04688
33.8984375,-73929.125
33.90625,-73944.11719
33.9140625,-73962.09375
33.921875,-73979.80469
33.9296875,-73994.46094
33.9375,-74004.99219
33.9453125,-74011.38281
33.953125,-74017.5625
33.9609375,-74026.14063
33.96875,-74038.05469
33.9765625,-74052.5
33.984375,-74065.6875
33.9921875,-74075.48438
34,-74080.92188
34.0078125,-74083.54688
34.015625,-74087.1875
34.0234375,-74095.13281
34.03125,-74109.44531
34.0390625,-74129.875
34.046875,-74153.09375
34.0546875,-74176.10938
34.0625,-74195.21094
34.0703125,-74209.38281
34.078125,-74220.625
34.0859375,-74231.55469
34.09375,-74246.89844
34.1015625,-74267.67969
34.109375,-74291.50781
34.1171875,-74314.03125
34.125,-74329.47656
34.1328125,-74337.04688
34.140625,-74340.04688
34.1484375,-74345.46875
34.15625,-74360.25
34.1640625,-74386.33594
34.171875,-74419.6875
34.1796875,-74452.22656
34.1875,-74475.24219
34.1953125,-74486.32031
34.203125,-74487.75
34.2109375,-74486.88281
34.21875,-74491.23438
34.2265625,-74503.03125
34.234375,-74521.39063
34.2421875,-74540.44531
34.25,-74554.14844
34.2578125,-74559.21094
34.265625,-74553.875
34.2734375,-74539.42969
34.28125,-74516.52344
34.2890625,-74485.19531
34.296875,-74445.60156
34.3046875,-74398.39844
34.3125,-74346.1875
34.3203125,-74293.15625
34.328125,-74242.22656
34.3359375,-74196.28125
34.34375,-74154.55469
34.3515625,-74115.73438
34.359375,-74079.15625
34.3671875,-74044.24219
34.375,-74013.82031
34.3828125,-73989.32031
34.390625,-73970.53906
34.3984375,-73955.42969
34.40625,-73939.45313
34.4140625,-73919.32031
34.421875,-73893.89063
34.4296875,-73865.125
34.4375,-73837.42969
34.4453125,-73814.30469
34.453125,-73797.52344
34.4609375,-73785.83594
34.46875,-73774.89844
34.4765625,-73762.15625
34.484375,-73745.55469
34.4921875,-73726.42188
34.5,-73708.33594
34.5078125,-73693.59375
34.515625,-73684.66406
34.5234375,-73680.32031
34.53125,-73677.9375
34.5390625,-73675.42188
34.546875,-73671
34.5546875,-73665.33594
34.5625,-73659.72656
34.5703125,-73655.27344
34.578125,-73652.78125
34.5859375,-73651.69531
34.59375,-73652.21875
34.6015625,-73655.28906
34.609375,-73661.14063
34.6171875,-73671.38281
34.625,-73684.82031
34.6328125,-73699.28125
34.640625,-73712.32813
34.6484375,-73720.60938
34.65625,-73724.3125
34.6640625,-73724.19531
34.671875,-73722.3125
34.6796875,-73721.63281
34.6875,-73723.53125
34.6953125,-73728.61719
34.703125,-73736.04688
34.7109375,-73743.78125
34.71875,-73750.40625
34.7265625,-73754.57813
34.734375,-73757.16406
34.7421875,-73760.45313
34.75,-73765.72656
34.7578125,-73774.76563
34.765625,-73786.03125
34.7734375,-73797.27344
34.78125,-73807.3125
34.7890625,-73815.75781
34.796875,-73826.49219
34.8046875,-73842.70313
34.8125,-73865.82031
34.8203125,-73894.08594
34.828125,-73921.69531
34.8359375,-73942.72656
34.84375,-73953.48438
34.8515625,-73954.66406
34.859375,-73951.75781
34.8671875,-73951.23438
34.875,-73959.02344
34.8828125,-73977.44531
34.890625,-74003.26563
34.8984375,-74032.14844
34.90625,-74057.42188
34.9140625,-74074.5
34.921875,-74082.77344
34.9296875,-74083.67969
34.9375,-74082.64063
34.9453125,-74084.03125
34.953125,-74089.97656
34.9609375,-74100.07813
34.96875,-74110.86719
34.9765625,-74119.15625
34.984375,-74123.875
34.9921875,-74126.83594
35,-74132.8125
35.0078125,-74145.32813
35.015625,-74165.89063
35.0234375,-74192.48438
35.03125,-74219.35938
35.0390625,-74242.78906
35.046875,-74259.89844
35.0546875,-74271.34375
35.0625,-74280.64844
35.0703125,-74290.21875
35.078125,-74302.75781
35.0859375,-74318
35.09375,-74334.38281
35.1015625,-74350.32813
35.109375,-74364.53906
35.1171875,-74377.13281
35.125,-74389.05469
35.1328125,-74400.72656
35.140625,-74412.49219
35.1484375,-74422.46094
35.15625,-74428.96875
35.1640625,-74431.46875
35.171875,-74430.28125
35.1796875,-74429.78906
35.1875,-74433.29688
35.1953125,-74442.10156
35.203125,-74454.25
35.2109375,-74462.78125
35.21875,-74461.88281
35.2265625,-74447.44531
35.234375,-74420.21094
35.2421875,-74384.77344
35.25,-74345.79688
35.2578125,-74306.00781
35.265625,-74265.21875
35.2734375,-74221.19531
35.28125,-74174.39063
35.2890625,-74126.5625
35.296875,-74082.05469
35.3046875,-74044.69531
35.3125,-74013.88281
35.3203125,-73987.76563
35.328125,-73961.47656
35.3359375,-73931.48438
35.34375,-73898.03906
35.3515625,-73863.01563
35.359375,-73831.03125
35.3671875,-73804.70313
35.375,-73784.1875
35.3828125,-73767.32813
35.390625,-73750.28125
35.3984375,-73730.23438
35.40625,-73706.48438
35.4140625,-73679.39063
35.421875,-73652.08594
35.4296875,-73626.13281
35.4375,-73603.25
35.4453125,-73584.80469
35.453125,-73570.57813
35.4609375,-73562.32031
35.46875,-73559.97656
35.4765625,-73562.24219
35.484375,-73566.9375
35.4921875,-73569.67969
35.5,-73567.67969
35.5078125,-73559.84375
35.515625,-73548.04688
35.5234375,-73536.60156
35.53125,-73529.28125
35.5390625,-73527.75781
35.546875,-73530.55469
35.5546875,-73532.72656
35.5625,-73530.97656
35.5703125,-73523.09375
35.578125,-73511.22656
35.5859375,-73500.54688
35.59375,-73494.9375
35.6015625,-73497.84375
35.609375,-73507.67969
35.6171875,-73520.17969
35.625,-73531.17188
35.6328125,-73537.1875
35.640625,-73538.38281
35.6484375,-73536.74219
35.65625,-73534.84375
35.6640625,-73534.6875
35.671875,-73535.94531
35.6796875,-73537.8125
35.6875,-73539.51563
35.6953125,-73540.48438
35.703125,-73543.64063
35.7109375,-73551.5
35.71875,-73567.14063
35.7265625,-73592.17969
35.734375,-73624.15625
35.7421875,-73660.07031
35.75,-73694.65625
35.7578125,-73723.92188
35.765625,-73747.40625
35.7734375,-73766.72656
35.78125,-73785.77344
35.7890625,-73807.26563
35.796875,-73831.17188
35.8046875,-73854.85156
35.8125,-73873.48438
35.8203125,-73883.77344
35.828125,-73885.57813
35.8359375,-73881.21094
35.84375,-73877.25
35.8515625,-73878.86719
35.859375,-73889.19531
35.8671875,-73908.00781
35.875,-73929.98438
35.8828125,-73950.25781
35.890625,-73963.98438
35.8984375,-73970.05469
35.90625,-73971.9375
35.9140625,-73974.32813
35.921875,-73981.57813
35.9296875,-73994.34375
35.9375,-74009.29688
35.9453125,-74021.85938
35.953125,-74028.125
35.9609375,-74028.60938
35.96875,-74027.54688
35.9765625,-74029.3125
35.984375,-74038.28906
35.9921875,-74053.91406
36,-74072.70313
36.0078125,-74091.90625
36.015625,-74107.63281
36.0234375,-74120.59375
36.03125,-74132.13281
36.0390625,-74144.21875
36.046875,-74158.6875
36.0546875,-74175.42969
36.0625,-74193.86719
36.0703125,-74212.75781
36.078125,-74230.69531
36.0859375,-74247.49219
36.09375,-74263.20313
36.1015625,-74279.58594
36.109375,-74298.97656
36.1171875,-74321.63281
36.125,-74347.85156
36.1328125,-74374.42188
36.140625,-74397.40625
36.1484375,-74414.24219
36.15625,-74422.70313
36.1640625,-74424.30469
36.171875,-74420.22656
36.1796875,-74411.36719
36.1875,-74397.64844
36.1953125,-74377.63281
36.203125,-74350.41406
36.2109375,-74316.03906
36.21875,-74275.44531
36.2265625,-74231.74219
36.234375,-74187.30469
36.2421875,-74144.89844
36.25,-74105.79688
36.2578125,-74067.875
36.265625,-74029.25781
36.2734375,-73986.54688
36.28125,-73938.85938
36.2890625,-73890.15625
36.296875,-73846.04688
36.3046875,-73814.125
36.3125,-73796.82031
36.3203125,-73790.52344
36.328125,-73786.75
36.3359375,-73776.07031
36.34375,-73753.90625
36.3515625,-73722.54688
36.359375,-73688.71875
36.3671875,-73660.21875
36.375,-73639.51563
36.3828125,-73624.39844
36.390625,-73610.30469
36.3984375,-73592.53906
36.40625,-73572.35156
36.4140625,-73552.42969
36.421875,-73535.55469
36.4296875,-73522.1875
36.4375,-73508.15625
36.4453125,-73490.07031
36.453125,-73466.11719
36.4609375,-73438.69531
36.46875,-73413.29688
36.4765625,-73394.8125
36.484375,-73385.53125
36.4921875,-73384.44531
36.5,-73387.5625
36.5078125,-73392.10938
36.515625,-73395.59375
36.5234375,-73397.96875
36.53125,-73400.47656
36.5390625,-73403.23438
36.546875,-73408.17969
36.5546875,-73415.35156
36.5625,-73424.17188
36.5703125,-73433.78906
36.578125,-73441.24219
36.5859375,-73445.47656
36.59375,-73446
36.6015625,-73444.52344
36.609375,-73444.39844
36.6171875,-73448.1875
36.625,-73456.97656
36.6328125,-73469.86719
36.640625,-73484.07031
36.6484375,-73498.72656
36.65625,-73512.92969
36.6640625,-73527.54688
36.671875,-73543.40625
36.6796875,-73558.88281
36.6875,-73573.46094
36.6953125,-73585.5
36.703125,-73594.79688
36.7109375,-73603.27344
36.71875,-73611.6875
36.7265625,-73621.48438
36.734375,-73632.07031
36.7421875,-73642.46094
36.75,-73652.82813
36.7578125,-73664.05469
36.765625,-73677.8125
36.7734375,-73694.95313
36.78125,-73713.4375
36.7890625,-73731.38281
36.796875,-73745.75781
36.8046875,-73756.48438
36.8125,-73766.26563
36.8203125,-73777.59375
36.828125,-73793.78125
36.8359375,-73813.82813
36.84375,-73834.02344
36.8515625,-73850.66406
36.859375,-73861.02344
36.8671875,-73866.82813
36.875,-73872.20313
36.8828125,-73881.76563
36.890625,-73898.34375
36.8984375,-73920.875
36.90625,-73946.22656
36.9140625,-73970.90625
36.921875,-73991.84375
36.9296875,-74009.57813
36.9375,-74024.33594
36.9453125,-74037.0625
36.953125,-74048.46875
36.9609375,-74057.46875
36.96875,-74065.36719
36.9765625,-74073.01563
36.984375,-74082.03125
36.9921875,-74094.51563
37,-74110.76563
37.0078125,-74129.90625
37.015625,-74149.92969
37.0234375,-74168.23438
37.03125,-74182.98438
37.0390625,-74193.17188
37.046875,-74199.86719
37.0546875,-74205.85156
37.0625,-74213.45313
37.0703125,-74225.80469
37.078125,-74242.5625
37.0859375,-74261.78125
37.09375,-74280.8125
37.1015625,-74296.08594
37.109375,-74308.03906
37.1171875,-74317.85156
37.125,-74327.5625
37.1328125,-74338.8125
37.140625,-74350.08594
37.1484375,-74358.57813
37.15625,-74360.64063
37.1640625,-74353.64063
37.171875,-74337.28906
37.1796875,-74312.24219
37.1875,-74280.44531
37.1953125,-74243.75781
37.203125,-74202.49219
37.2109375,-74158.78906
37.21875,-74113.60156
37.2265625,-74068.3125
37.234375,-74024.21875
37.2421875,-73980.23438
37.25,-73936.63281
37.2578125,-73893.21094
37.265625,-73851.53906
37.2734375,-73815.39063
37.28125,-73787.49219
37.2890625,-73768.71094
37.296875,-73755.875
37.3046875,-73742.70313
37.3125,-73723.32813
37.3203125,-73694.1875
37.328125,-73657.16406
37.3359375,-73617.65625
37.34375,-73580.45313
37.3515625,-73549.75781
37.359375,-73524.96094
37.3671875,-73503.91406
37.375,-73485.22656
37.3828125,-73467.5625
37.390625,-73452.58594
37.3984375,-73440.57813
37.40625,-73430.79688
37.4140625,-73422.53125
37.421875,-73414.97656
37.4296875,-73409.29688
37.4375,-73406.96875
37.4453125,-73407.71875
37.453125,-73409.17969
37.4609375,-73405.96094
37.46875,-73394.17969
37.4765625,-73373.8125
37.484375,-73348.0625
37.4921875,-73324.71094
37.5,-73308.60156
37.5078125,-73300.82813
37.515625,-73298.90625
37.5234375,-73297.21875
37.53125,-73293.78906
37.5390625,-73289.17969
37.546875,-73286.44531
37.5546875,-73288.75
37.5625,-73295.65625
37.5703125,-73303.95313
37.578125,-73309.5
37.5859375,-73309.79688
37.59375,-73306.76563
37.6015625,-73304.05469
37.609375,-73305.99219
37.6171875,-73314.52344
37.625,-73327.02344
37.6328125,-73341.21094
37.640625,-73353.99219
37.6484375,-73364.92969
37.65625,-73376.14063
37.6640625,-73388.44531
37.671875,-73402.64063
37.6796875,-73416.74219
37.6875,-73428.5
37.6953125,-73437.38281
37.703125,-73444.58594
37.7109375,-73452.92969
37.71875,-73464.77344
37.7265625,-73479.65625
37.734375,-73496.59375
37.7421875,-73512.875
37.75,-73527.63281
37.7578125,-73541.75
37.765625,-73555.3125
37.7734375,-73569.67969
37.78125,-73583.58594
37.7890625,-73595.61719
37.796875,-73606.23438
37.8046875,-73616.32813
37.8125,-73629.375
37.8203125,-73646.82031
37.828125,-73667.46094
37.8359375,-73687.28906
37.84375,-73701
37.8515625,-73705.5
37.859375,-73702.13281
37.8671875,-73695.4375
37.875,-73693.17188
37.8828125,-73699.9375
37.890625,-73717.03906
37.8984375,-73741.64063
37.90625,-73767.36719
37.9140625,-73790.48438
37.921875,-73808.54688
37.9296875,-73822.11719
37.9375,-73834.16406
37.9453125,-73846.09375
37.953125,-73859.44531
37.9609375,-73873.60938
37.96875,-73887.51563
37.9765625,-73900.54688
37.984375,-73912.28906
37.9921875,-73923.20313
38,-73934.39844
38.0078125,-73946.35156
38.015625,-73960.85156
38.0234375,-73977.66406
38.03125,-73996.09375
38.0390625,-74014.71875
38.046875,-74030.09375
38.0546875,-74041.4375
38.0625,-74048.32813
38.0703125,-74052.57031
38.078125,-74057.94531
38.0859375,-74067.07031
38.09375,-74081.40625
38.1015625,-74099.22656
38.109375,-74116.30469
38.1171875,-74127.875
38.125,-74129.38281
38.1328125,-74119.42188
38.140625,-74099.50781
38.1484375,-74071.94531
38.15625,-74040.91406
38.1640625,-74007.49219
38.171875,-73971.23438
38.1796875,-73930.85156
38.1875,-73884.21875
38.1953125,-73833.64063
38.203125,-73782.61719
38.2109375,-73736.0625
38.21875,-73698.32031
38.2265625,-73669.77344
38.234375,-73648.21875
38.2421875,-73629.17969
38.25,-73608.32031
38.2578125,-73583.79688
38.265625,-73555.23438
38.2734375,-73524.35156
38.28125,-73493.20313
38.2890625,-73462.32813
38.296875,-73433.71094
38.3046875,-73407.86719
38.3125,-73385.53125
38.3203125,-73367.26563
38.328125,-73350.875
38.3359375,-73334.92969
38.34375,-73316.72656
38.3515625,-73295.14844
38.359375,-73272.17969
38.3671875,-73251.14844
38.375,-73236.36719
38.3828125,-73230.24219
38.390625,-73232.02344
38.3984375,-73238.77344
38.40625,-73245.90625
38.4140625,-73250.5625
38.421875,-73252.48438
38.4296875,-73252.44531
38.4375,-73254.01563
38.4453125,-73258.71094
38.453125,-73266.96875
38.4609375,-73278.36719
38.46875,-73290.33594
38.4765625,-73302.09375
38.484375,-73312.0625
38.4921875,-73319.00781
38.5,-73322.875
38.5078125,-73323.63281
38.515625,-73322.67969
38.5234375,-73322.14063
38.53125,-73323.78906
38.5390625,-73329.09375
38.546875,-73337.21875
38.5546875,-73347.25781
38.5625,-73358.71875
38.5703125,-73371.14844
38.578125,-73386.79688
38.5859375,-73405.89063
38.59375,-73426.97656
38.6015625,-73447.13281
38.609375,-73461.46094
38.6171875,-73468.89063
38.625,-73470.89063
38.6328125,-73471.94531
38.640625,-73477.45313
38.6484375,-73489.42969
38.65625,-73506.40625
38.6640625,-73524.20313
38.671875,-73538.39844
38.6796875,-73547.66406
38.6875,-73552.32813
38.6953125,-73554.27344
38.703125,-73554.375
38.7109375,-73550.69531
38.71875,-73543.08594
38.7265625,-73531.84375
38.734375,-73519.89844
38.7421875,-73511.53125
38.75,-73507.49219
38.7578125,-73506.39063
38.765625,-73503.08594
38.7734375,-73493.30469
38.78125,-73476.99219
38.7890625,-73458.42188
38.796875,-73444.32031
38.8046875,-73439.1875
38.8125,-73441.67969
38.8203125,-73446.02344
38.828125,-73443.44531
38.8359375,-73428.4375
38.84375,-73401.09375
38.8515625,-73365.98438
38.859375,-73332.88281
38.8671875,-73310.17969
38.875,-73303.89063
38.8828125,-73316.78125
38.890625,-73346.01563
38.8984375,-73386.69531
38.90625,-73430.88281
38.9140625,-73470.875
38.921875,-73502.10156
38.9296875,-73524.13281
38.9375,-73541.45313
38.9453125,-73561.17188
38.953125,-73588.5
38.9609375,-73626.10938
38.96875,-73670.75
38.9765625,-73717.16406
38.984375,-73760.54688
38.9921875,-73797.49219
39,-73830.28125
39.0078125,-73861.24219
39.015625,-73893.27344
39.0234375,-73927.97656
39.03125,-73963.42188
39.0390625,-73998.09375
39.046875,-74029.71875
39.0546875,-74056.98438
39.0625,-74079.39063
39.0703125,-74095.89063
39.078125,-74105.27344
39.0859375,-74106.45313
39.09375,-74098.46875
39.1015625,-74083.57031
39.109375,-74064.07031
39.1171875,-74043.22656
39.125,-74023.36719
39.1328125,-74003.30469
39.140625,-73982.13281
39.1484375,-73957.11719
39.15625,-73926.70313
39.1640625,-73891.77344
39.171875,-73853.53906
39.1796875,-73815.67969
39.1875,-73781.10156
39.1953125,-73752.3125
39.203125,-73730.50781
39.2109375,-73714.33594
39.21875,-73700.55469
39.2265625,-73684.95313
39.234375,-73663.125
39.2421875,-73634.98438
39.25,-73602.58594
39.2578125,-73571.03125
39.265625,-73545.60156
39.2734375,-73527.46094
39.28125,-73516.24219
39.2890625,-73507.6875
39.296875,-73497.32813
39.3046875,-73482.98438
39.3125,-73463.46094
39.3203125,-73439.83594
39.328125,-73413.17969
39.3359375,-73385.04688
39.34375,-73358.07813
39.3515625,-73335.71875
39.359375,-73322.04688
39.3671875,-73319.85938
39.375,-73327.51563
39.3828125,-73341.1875
39.390625,-73353.52344
39.3984375,-73358.98438
39.40625,-73356.47656
39.4140625,-73348.57031
39.421875,-73342.76563
39.4296875,-73344.80469
39.4375,-73356.375
39.4453125,-73374.49219
39.453125,-73391.83594
39.4609375,-73401.89844
39.46875,-73401.73438
39.4765625,-73393.46875
39.484375,-73383.39063
39.4921875,-73377.25781
39.5,-73378.28125
39.5078125,-73385.16406
39.515625,-73392.20313
39.5234375,-73395.33594
39.53125,-73391.73438
39.5390625,-73383.03125
39.546875,-73374.00781
39.5546875,-73368.07031
39.5625,-73368.46875
39.5703125,-73374.42969
39.578125,-73383.67969
39.5859375,-73394.79688
39.59375,-73406.875
39.6015625,-73420.70313
39.609375,-73436.35156
39.6171875,-73452.02344
39.625,-73464.85156
39.6328125,-73471.41406
39.640625,-73471.39844
39.6484375,-73467.96875
39.65625,-73465.38281
39.6640625,-73469.125
39.671875,-73480.01563
39.6796875,-73495.5
39.6875,-73511.41406
39.6953125,-73523.07031
39.703125,-73530.58594
39.7109375,-73535.66406
39.71875,-73540.92969
39.7265625,-73548.57031
39.734375,-73558.04688
39.7421875,-73568.90625
39.75,-73581.34375
39.7578125,-73596.71875
39.765625,-73617.02344
39.7734375,-73641.47656
39.78125,-73667.07813
39.7890625,-73689.16406
39.796875,-73703.05469
39.8046875,-73709.36719
39.8125,-73711.38281
39.8203125,-73714.75781
39.828125,-73724.46094
39.8359375,-73740.32031
39.84375,-73759.9375
39.8515625,-73777.75781
39.859375,-73789.21875
